"","SNP","snpbetw_centr"
"1","13:109247640:C:G",16.5045712248627
"2","13:109251725:G:A",287.354305019069
"3","13:109251923:C:T",38.4257411478626
"4","13:109254340:G:A",51.9799531858777
"5","13:109255736:A:G",29.3647413457233
"6","13:109257255:T:C",111.371427302777
"7","13:109257950:T:C",161.869716530285
"8","13:109259011:C:T",73.8525714700619
"9","13:109260360:A:G",45.494864187824
"10","13:109261387:C:T",28.6586249416433
"11","13:109262435:C:T",60.5770432643896
"12","13:109264450:G:A",361.193090572488
"13","13:109266331:C:T",43.0214553402227
"14","13:109266906:C:T",67.8984968582162
"15","13:109267149:A:T",238.218121714424
"16","13:109267483:G:A",65.0999908536301
"17","13:109268267:A:G",143.646947470422
"18","13:109269002:C:T",68.6128247574743
"19","13:109269569:T:C",33.8209186239771
"20","13:109271217:C:T",33.4346765786695
"21","13:109273942:G:A",151.349127979885
"22","13:109277419:A:G",147.139456906226
"23","13:109278293:A:G",48.8560639675985
"24","13:109279034:T:C",267.15326443896
"25","13:109279195:A:G",205.711156133413
"26","13:109279353:G:A",58.2381125559627
"27","13:109282072:T:G",178.404106642647
"28","13:109282805:G:T",269.774147074902
"29","13:109282962:T:A",48.1803537404134
"30","13:109286039:A:G",36.4072165874122
"31","13:109286728:G:C",266.130421820916
"32","13:109287583:A:C",161.408820557918
"33","13:109288137:C:T",61.3663814412474
"34","13:109290985:T:A",72.3502217990126
"35","13:109291177:G:A",73.2092526896516
"36","13:109293501:G:A",246.828769298415
"37","13:109297066:T:C",78.961778986403
"38","13:109297390:A:G",48.1803537404134
"39","13:109298883:C:A",49.4385936063345
"40","13:109298956:T:G",73.9634305880021
"41","13:109299579:C:A",52.9939171854783
"42","13:109299735:C:G",43.3583520789375
"43","13:109300758:C:G",128.09943642018
"44","13:109301095:G:A",243.920943839279
"45","13:109308665:G:A",51.0846465493508
"46","13:109313665:G:A",71.2984572416607
"47","13:109315123:C:T",35.3575483405265
"48","13:109315310:C:T",273.505902048175
"49","13:109316755:C:T",32.2686145679426
"50","13:109318850:T:G",46.0253659832782
"51","13:109320091:C:A",140.911645220387
"52","13:109320162:G:A",51.6144939926779
"53","13:109322398:G:A",41.598082504773
"54","13:109325095:T:A",56.620730610599
"55","13:109325479:A:G",52.2966943101195
"56","13:109327918:A:G",71.2984572416607
"57","13:109329108:G:A",65.254181874202
"58","13:109329236:C:T",107.702010417559
"59","13:109330018:C:T",111.287000874325
"60","13:109331907:C:T",85.8157593097767
"61","13:109337629:A:G",177.852479691705
"62","13:109337669:G:A",61.4765306533358
"63","13:109337887:A:G",284.569202516873
"64","13:109340529:C:T",49.3089382322777
"65","13:109340944:C:G",63.5526953633781
"66","13:109341046:A:G",162.376362741567
"67","13:109341054:A:G",245.585063832274
"68","13:109347476:T:C",96.072793089801
"69","13:109350507:T:C",78.3257349867902
"70","13:109351167:C:A",85.7553183924122
"71","13:109351286:T:A",78.1549313313769
"72","13:109351440:C:A",23.1511290460977
"73","13:109351671:A:G",288.339816110026
"74","13:109356267:T:A",95.9024037256826
"75","13:109357627:C:A",38.8818655377367
"76","13:109359162:G:C",216.307668072556
"77","13:109359691:G:A",70.394022462188
"78","13:109359792:T:A",250.769026891514
"79","13:109360333:T:G",101.138050509781
"80","13:109360859:C:G",147.596106422434
"81","13:109361048:G:A",57.2765118943159
"82","13:109361072:A:T",50.4149599868324
"83","13:109361345:C:T",326.356008873284
"84","13:109363197:T:C",59.1795686668473
"85","13:109363423:T:G",77.1993003726981
"86","13:109364066:T:G",64.2269413995526
"87","13:109365258:G:C",68.1733809379844
"88","13:109366694:T:C",20.376267865162
"89","13:109366969:T:G",241.246575926298
"90","13:109372191:G:A",25.6449021029541
"91","13:109372627:G:A",76.9370693574024
"92","13:109372754:C:T",131.128908686858
"93","13:109374956:C:T",33.3983567769318
"94","13:109376702:T:C",70.1712220213635
"95","13:109378909:A:T",225.529227352038
"96","13:109378922:A:G",208.031717496143
"97","13:109383791:T:C",122.359677009188
"98","13:109386588:A:G",35.3739301815254
"99","13:109387133:T:A",69.9588498406093
"100","13:109387156:G:A",161.813379503058
"101","13:109389115:A:T",58.2533280062075
"102","13:109391709:A:C",219.869315243856
"103","13:109391751:T:G",35.8907236694435
"104","13:109392635:T:A",69.6098027467627
"105","13:109392896:G:A",78.3752857112558
"106","13:109393659:C:G",114.807999435995
"107","13:109397548:C:T",60.9199649926584
"108","13:109397750:G:A",71.3573180496841
"109","13:109398038:A:T",46.0590260036186
"110","13:109398144:T:C",28.9917015325278
"111","13:109403491:C:G",309.627119407804
"112","13:109403845:C:T",37.927636297726
"113","13:109405000:T:C",67.1155931429269
"114","13:109406650:T:C",51.8911903397401
"115","13:109408712:A:G",46.0708621833232
"116","13:109409838:T:A",257.98931572564
"117","13:109410096:C:T",72.8344382007556
"118","13:109410175:G:A",48.0810634474781
"119","13:109410979:C:G",193.146648650935
"120","13:109411142:G:A",89.4118339521196
"121","13:109412005:T:C",98.6736964175279
"122","13:109412639:G:A",315.808651181967
"123","13:109414154:G:A",24.2806460138667
"124","13:109414778:A:T",55.7067348420833
"125","13:109418440:A:G",156.344081403501
"126","13:109419666:G:A",60.9199649926584
"127","13:109422405:C:T",55.7067348420833
"128","13:109423296:G:A",92.4981272113798
"129","13:109424737:A:G",64.9436855828111
"130","13:109425992:A:G",305.280536939005
"131","13:109426194:C:A",171.601344039826
"132","13:109428109:G:A",203.770374048937
"133","13:109429998:G:A",43.6287783911066
"134","13:109430891:C:T",59.1266918067439
"135","13:109430892:G:A",22.6090491214572
"136","13:109431079:T:C",64.9436855828111
"137","13:109432328:C:A",64.0511714246046
"138","13:109433496:C:G",242.368004482475
"139","13:109434266:C:G",293.715038070328
"140","13:109434276:G:A",55.7067348420833
"141","13:109434637:C:T",23.4133456099966
"142","13:109436591:C:G",64.9436855828111
"143","13:109437923:C:T",134.362504540894
"144","13:109441750:G:A",299.903555855753
"145","13:109442360:G:A",24.2806460138667
"146","13:109443142:G:A",100.548516831663
"147","13:109443715:C:A",47.0871787735447
"148","13:109443806:T:G",187.292484794714
"149","13:109444288:A:C",77.1534525476037
"150","13:109444586:C:T",74.9359891653376
"151","13:109445558:C:T",55.7067348420833
"152","13:109451264:G:A",17.1292983413009
"153","13:109451987:C:T",131.587039682344
"154","13:109455835:G:A",280.009309475208
"155","13:109458541:G:A",49.9929817091881
"156","13:109458816:G:A",40.1456955684148
"157","13:109459772:T:C",120.040886387186
"158","13:109460590:A:C",51.6449977820493
"159","13:109461648:C:T",107.342909144667
"160","13:109461659:C:T",136.646961973488
"161","13:109462275:C:T",64.7035619032766
"162","13:109462321:G:A",163.696145428498
"163","13:109462336:A:G",262.536985799714
"164","13:109462535:A:G",117.694525519152
"165","13:109462626:C:T",132.805176998273
"166","13:109462720:G:A",44.6516426204957
"167","13:109463459:T:G",27.4954804771761
"168","13:109465457:C:T",48.6925087418568
"169","13:109469977:T:G",104.046593732342
"170","13:109470040:C:T",61.2550453711122
"171","13:109472148:A:C",126.787976199232
"172","13:109472710:T:A",24.9337677459605
"173","13:109474707:G:T",115.372456206307
"174","13:109476560:A:T",53.4240344071216
"175","13:109479569:T:C",40.3294659381094
"176","13:109480083:C:T",86.4490129397978
"177","13:109480326:T:C",105.451258525493
"178","13:109482071:A:G",112.87609742107
"179","13:109483529:T:C",151.97392274363
"180","13:109483871:T:C",288.563839779398
"181","13:109486278:T:G",61.8917656021041
"182","13:109487016:T:A",36.8766356414997
"183","13:109489725:T:C",77.2837255995769
"184","13:109492752:C:T",41.6247502886352
"185","13:109493084:A:G",38.3389736750879
"186","13:109495370:T:G",89.4408998632521
"187","13:109499659:G:A",82.1000598199398
"188","13:109500202:T:C",276.471094841797
"189","13:109500438:C:T",295.832344635022
"190","13:109502419:T:C",45.3766943489602
"191","13:109503112:C:T",40.9331263537224
"192","13:109504132:T:C",123.407016142865
"193","13:109504464:G:A",57.4447340584471
"194","13:109504870:A:T",288.22203405307
"195","13:109505140:A:G",255.826788204874
"196","13:109505800:G:A",45.6852912911123
"197","13:109507785:C:T",42.1543596224775
"198","13:109508011:A:C",239.673858865455
"199","13:109511378:C:T",108.72972110277
"200","13:109514587:C:T",48.536342602428
"201","13:109515878:C:A",75.7627147579816
"202","13:109522964:T:A",295.260573397845
"203","13:109525621:G:A",115.006280274496
"204","13:109525798:G:A",44.1842227172132
"205","13:109527412:G:A",58.9747442928196
"206","13:109527838:G:A",47.0006131812253
"207","13:109533011:A:G",75.380616850581
"208","13:109538087:T:C",288.335448359356
"209","13:109542081:C:T",46.6410758485511
"210","13:109542301:A:G",207.994644914464
"211","13:109545525:T:C",114.946604785264
"212","13:109549806:C:T",3.52640576031652
"213","13:109550367:G:A",47.4098929643245
"214","13:109550669:A:G",253.101340053188
"215","13:109550866:C:T",26.2140990660812
"216","13:109552611:G:A",38.1516816023552
"217","13:109552805:G:A",73.2265540503529
"218","13:109555295:A:G",98.4545078528062
"219","13:109557341:A:G",271.17973195628
"220","13:109559297:A:T",66.9733122686538
"221","13:109562298:G:T",78.1427219101661
"222","13:109562437:A:C",76.0499632360536
"223","13:109562934:G:A",121.17370353617
"224","13:109563959:A:G",207.994644914464
"225","13:109568934:G:A",254.064340169
"226","13:109569754:G:A",45.4137430911883
"227","13:109571945:G:A",297.538230097591
"228","13:109572388:C:G",61.7062727971477
"229","13:109574393:G:A",253.101340053188
"230","13:109574544:A:G",78.1427219101661
"231","13:109575808:C:T",98.6992515912473
"232","13:109576820:A:G",48.536342602428
"233","13:109577071:C:G",191.453613287112
"234","13:109577282:T:C",27.0545840794351
"235","13:109578566:C:A",198.239157816324
"236","13:109579321:C:T",227.510297913776
"237","13:109579844:G:T",322.03787994924
"238","13:109580017:G:A",118.358586665051
"239","13:109580205:G:A",265.551133186878
"240","13:109580621:C:T",39.3777913524092
"241","13:109581213:T:C",229.22982762886
"242","13:109583885:A:G",150.624090004889
"243","13:109583936:G:A",170.537025382449
"244","13:109585485:A:G",50.6261184473639
"245","13:109586810:A:G",98.3132776812803
"246","13:109593879:G:A",297.65054475508
"247","13:109595700:G:A",59.0816648044751
"248","13:109597591:A:G",58.7708404804252
"249","13:109600374:G:A",64.3195559698287
"250","13:109603844:A:G",34.8327835754665
"251","13:109604608:G:A",59.2262487704536
"252","13:109605712:T:G",33.4568184750217
"253","13:109606557:A:C",71.046376388748
"254","13:109608715:C:T",250.2560122268
"255","13:109609012:A:C",305.180974501158
"256","13:109609170:T:C",268.871676915801
"257","13:109610862:C:A",214.528112952657
"258","13:109610862:C:T",30.5517603873231
"259","13:109620800:A:G",34.6023836993753
"260","13:109621248:C:T",87.6371812988874
"261","13:109621734:C:T",43.7550974177599
"262","13:109622295:A:G",54.5126330953169
"263","13:109623978:T:C",118.828941189133
"264","13:109625643:G:C",97.8577612848466
"265","13:109627301:C:A",69.5757532858121
"266","13:109632527:G:A",65.0156619860287
"267","13:109633624:T:G",64.2597321334638
"268","13:109634114:G:A",238.880679211763
"269","13:109638351:A:G",317.745596241142
"270","13:109638381:G:A",36.2432901755008
"271","13:109638562:G:A",107.348844553085
"272","13:109638937:T:A",72.7264351751025
"273","13:109642098:T:C",53.086559080953
"274","13:109642123:T:C",40.0509367326354
"275","13:109642216:T:A",48.3610863448924
"276","13:109643557:C:G",99.036278443274
"277","13:109644323:A:G",21.6443656545687
"278","13:109645021:A:C",200.807520067536
"279","13:109646746:T:C",275.005061588679
"280","13:109649228:G:C",64.2986580816496
"281","13:109649890:G:A",36.56488165079
"282","13:109652365:G:A",40.6797954494681
"283","13:109657445:A:G",138.242589153784
"284","13:109658667:A:T",217.551832128743
"285","13:109658930:T:C",116.425135457469
"286","13:109659385:C:T",48.3610863448924
"287","13:109659722:C:T",85.8396698500168
"288","13:109664556:G:A",130.607707611792
"289","13:109667404:G:C",200.807520067536
"290","13:109667784:G:A",87.7235897618591
"291","13:109669143:G:T",100.023235767216
"292","13:109671011:A:G",90.8430264044639
"293","13:109671892:T:G",152.926633712431
"294","13:109677106:A:G",53.5590969001313
"295","13:109678604:G:A",64.3927509512808
"296","13:109680533:G:A",60.6518114702912
"297","13:109684986:G:A",46.6788497825816
"298","13:109685721:G:A",82.3194197017567
"299","13:109686893:G:A",150.752013576458
"300","13:109687009:T:C",106.597447502333
"301","13:109687079:G:A",64.5480084813054
"302","13:109687523:C:A",291.630424340714
"303","13:109692225:A:G",108.518267167351
"304","13:109692541:A:G",80.3092117308274
"305","13:109693885:C:A",190.261960722151
"306","13:109694194:T:C",89.9782485164682
"307","13:109694274:G:A",46.8786017764275
"308","13:109694744:T:C",79.1317238445611
"309","13:109698986:A:G",270.16700943117
"310","13:109705136:G:A",54.3470424116178
"311","13:109705353:A:C",108.518267167351
"312","13:109706432:G:C",71.8329585105317
"313","13:109709810:C:G",30.0539485921264
"314","13:109710113:C:A",77.7074223577277
"315","13:109710600:G:A",246.025144013965
"316","13:109711671:C:T",73.4195534634807
"317","13:109711672:A:G",278.44384823418
"318","13:109712056:T:C",189.574457866192
"319","13:109712399:G:C",27.2814428230495
"320","13:109712670:A:G",118.112405970229
"321","13:109713215:G:T",58.2420494885661
"322","13:109714667:A:T",63.6336658393095
"323","13:109715020:A:G",194.806254148999
"324","13:109715675:G:A",154.715233404238
"325","13:109716862:G:T",39.3638553386042
"326","13:109719491:G:A",253.113592930522
"327","13:109719616:G:A",183.507497475538
"328","13:109719850:T:G",217.551832128743
"329","13:109720681:G:A",83.9835827818423
"330","13:109724076:G:A",199.342810559258
"331","13:109724528:C:T",65.4829192831076
"332","13:109725033:A:G",253.113592930522
"333","13:109726529:A:T",39.3638553386042
"334","13:109726899:G:A",118.133642488074
"335","13:109727569:T:G",164.569153324025
"336","13:109728409:G:A",27.2814428230495
"337","13:109730036:G:A",108.063250048079
"338","13:109730790:A:G",183.507497475538
"339","13:109731617:G:T",253.113592930522
"340","13:109731717:G:A",63.1828524511421
"341","13:109732702:G:C",54.2081561052824
"342","13:109734578:C:T",167.167739232831
"343","13:109737401:G:A",116.298599062291
"344","13:109741291:G:A",288.344636218457
"345","13:109743185:G:T",43.2868103969353
"346","13:109743470:T:C",42.3029271154124
"347","13:109743846:G:A",59.2617032564381
"348","13:109749099:G:A",279.720164856363
"349","13:109749459:C:T",87.4903964925808
"350","13:109751196:G:A",35.8030526362181
"351","13:109753331:C:A",35.577875275741
"352","13:109754779:G:T",86.7337474993884
"353","13:109757388:T:G",56.7227534897767
"354","13:109760509:C:T",217.233802847251
"355","13:109767231:T:C",38.7857690807217
"356","13:109768147:G:T",36.9283020674188
"357","13:109769756:A:G",51.6665770354392
"358","13:109777331:G:T",189.725836436264
"359","13:109778017:A:G",105.8467956764
"360","13:109779418:G:A",82.3773430388291
"361","13:109780615:G:C",107.455240841057
"362","13:109783776:T:C",56.232939393156
"363","13:109787435:A:T",95.9030260027491
"364","13:109790258:T:C",28.5532826963534
"365","13:109790422:G:A",310.59162256431
"366","13:109792825:C:T",48.6604872469444
"367","13:109792970:C:T",21.8965004851175
"368","13:109793246:G:C",92.3900863379223
"369","13:109793474:T:C",149.061086422276
"370","13:109793593:C:A",28.4071361549756
"371","13:109794047:T:A",101.754095697889
"372","13:109796714:G:A",78.8975457747095
"373","13:109801432:A:C",254.097783786074
"374","13:109801588:C:T",79.4258243428817
"375","13:109801686:T:C",104.701186866052
"376","13:109802871:C:T",59.1723658588145
"377","13:109806518:C:T",54.3600859018817
"378","13:109808029:A:G",3.52640576031652
"379","13:109810677:T:G",110.929968579137
"380","13:109812686:C:A",210.938270272139
"381","13:109813624:C:G",174.946269043215
"382","13:109814635:T:G",107.636130519558
"383","13:109814701:G:A",100.099058241976
"384","13:109825066:G:A",294.351544197234
"385","13:109825209:T:G",47.7796551608745
"386","13:109825484:G:A",112.486911754574
"387","13:109827288:C:A",89.8742682556215
"388","13:109828609:T:C",51.4266774213201
"389","13:109829015:C:G",112.555928150463
"390","13:109829711:C:T",97.5373314110477
"391","13:109830490:C:T",50.0057994159509
"392","13:109830991:G:A",42.7822656973134
"393","13:109833855:G:A",83.787445727763
"394","13:109835451:A:G",50.7048732762786
"395","13:109836309:A:G",286.713853758893
"396","13:109837643:A:G",34.8534640211969
"397","13:109837814:A:G",47.8753310986846
"398","13:109840664:C:T",111.413440557019
"399","13:109842648:G:A",56.9341748086214
"400","13:109842701:C:T",83.407952610853
"401","13:109843571:A:G",120.95394469968
"402","13:109844668:C:A",50.7048732762786
"403","13:109847482:T:A",34.8534640211969
"404","13:109852534:C:T",63.3434567796139
"405","13:109853047:T:G",53.4316716358785
"406","13:109855949:T:C",50.7444834680842
