"","SNP","snpbetw_centr"
"1","2:171035382:A:G",17.5936944030919
"2","2:171038611:T:C",70.1815972594573
"3","2:171039569:C:G",59.1068586892965
"4","2:171040987:A:G",20.2100998312038
"5","2:171042999:A:G",87.311186677662
"6","2:171043344:A:G",26.3718269276594
"7","2:171043406:A:G",312.322736979774
"8","2:171043536:G:C",17.5936944030919
"9","2:171045592:T:C",35.2254132583658
"10","2:171046443:C:T",175.035426440702
"11","2:171046638:A:C",59.1068586892965
"12","2:171046875:T:G",31.7283529922516
"13","2:171046985:T:C",73.6872729263304
"14","2:171047645:G:A",21.8360928595781
"15","2:171048202:G:A",290.801062178734
"16","2:171051441:G:A",17.5936944030919
"17","2:171051590:G:A",109.780983376544
"18","2:171056232:G:A",40.6422349864479
"19","2:171057682:C:T",290.801062178734
"20","2:171057881:T:G",28.8483060582397
"21","2:171059679:G:A",60.4666723955034
"22","2:171060783:G:A",193.180046274958
"23","2:171062114:C:T",35.3053139247111
"24","2:171062234:A:G",39.2872805797986
"25","2:171070785:T:G",110.192263449806
"26","2:171071959:G:T",25.1669660418028
"27","2:171073400:A:G",56.6971687904619
"28","2:171076494:T:C",37.6693473435812
"29","2:171077088:A:G",62.6162056571602
"30","2:171077133:C:T",297.447238688694
"31","2:171077242:G:A",22.2393090412252
"32","2:171077934:G:A",116.806771665254
"33","2:171078067:T:A",223.228856475832
"34","2:171078393:T:A",64.2003977464329
"35","2:171078637:G:A",195.34501163498
"36","2:171079608:G:A",52.3767270295311
"37","2:171083854:G:C",228.002869975933
"38","2:171084515:G:A",16.2733789641847
"39","2:171085082:C:T",111.792890939689
"40","2:171086070:T:C",78.7289668800474
"41","2:171087718:G:A",97.5751266186112
"42","2:171089475:A:G",174.417068955163
"43","2:171091961:T:C",32.752879570313
"44","2:171093133:G:C",44.9631383162063
"45","2:171097275:G:A",285.248482020667
"46","2:171097984:G:A",50.2701921826958
"47","2:171100088:G:A",115.967632449586
"48","2:171100443:A:T",323.724047613757
"49","2:171101265:A:G",20.4244050809838
"50","2:171102202:G:C",93.2696274518934
"51","2:171102414:A:G",79.1101149453645
"52","2:171102878:C:G",39.0703484917238
"53","2:171105318:A:G",231.556248873881
"54","2:171105513:G:A",33.0304765923545
"55","2:171105884:A:G",155.115092505553
"56","2:171107326:C:A",83.5030738110947
"57","2:171107601:G:A",37.947826931611
"58","2:171110317:G:A",33.0250174831783
"59","2:171112236:C:T",39.2004608915116
"60","2:171112591:A:G",273.580782371976
"61","2:171113820:A:G",42.2737245266855
"62","2:171114191:A:G",273.436999925726
"63","2:171116340:A:T",161.34755656807
"64","2:171122395:A:C",57.7942746576528
"65","2:171124423:G:A",22.3057242623248
"66","2:171125881:C:T",71.9065357537596
"67","2:171130621:C:T",54.8465681405317
"68","2:171131208:T:C",22.4763430700022
"69","2:171131302:G:T",98.3139818420621
"70","2:171131521:T:C",17.1626123767831
"71","2:171131925:C:A",44.1528284375559
"72","2:171132593:T:C",29.5595969706554
"73","2:171135046:A:G",249.394795467247
"74","2:171135088:C:T",43.8178854283225
"75","2:171135246:T:C",42.5291480155209
"76","2:171135269:C:T",24.0676065584761
"77","2:171135382:C:T",17.724298020501
"78","2:171135616:C:T",72.9320548117601
"79","2:171137276:G:A",20.7224041523336
"80","2:171138681:C:T",139.861174861059
"81","2:171141660:A:G",38.1907782322999
"82","2:171142059:G:A",27.7917033244441
"83","2:171143415:T:C",255.019005766405
"84","2:171143895:C:T",39.3133210555918
"85","2:171146169:A:G",54.945797641771
"86","2:171146563:T:C",131.898574435614
"87","2:171146709:T:C",44.0434368980292
"88","2:171146717:G:T",76.6992352712499
"89","2:171147674:G:C",20.7224041523336
"90","2:171149193:G:A",48.5139550616737
"91","2:171151866:T:A",38.1907782322999
"92","2:171152779:C:T",39.9573201271519
"93","2:171155623:G:A",250.976181015943
"94","2:171157105:A:G",115.012233827051
"95","2:171157730:C:T",53.9712913935214
"96","2:171160838:G:A",29.3495234893687
"97","2:171161233:A:T",37.6148021710997
"98","2:171163644:T:C",30.367117575347
"99","2:171166390:C:T",201.309513260044
"100","2:171168178:A:G",27.7917033244441
"101","2:171168484:C:T",56.4012897058657
"102","2:171176267:G:T",45.7196592943715
"103","2:171178231:G:A",285.289465535844
"104","2:171178597:C:A",42.9722493009547
"105","2:171179150:A:T",43.537317903766
"106","2:171179290:T:C",116.468911403431
"107","2:171181409:A:C",40.2485857537283
"108","2:171182368:A:G",18.3853726080642
"109","2:171182841:A:T",220.384399710775
"110","2:171183622:T:C",124.316495469997
"111","2:171185884:T:C",80.2262248431532
"112","2:171189496:A:G",140.37130241577
"113","2:171190784:C:T",272.445548827117
"114","2:171193528:C:G",19.2976426949803
"115","2:171195544:G:T",31.6126899128743
"116","2:171207796:A:G",79.5271023275173
"117","2:171207868:T:C",166.720983953191
"118","2:171208179:T:C",10.8877708554281
"119","2:171208242:A:C",296.041478844993
"120","2:171208283:G:A",42.1677176981309
"121","2:171208304:A:C",16.5551288891779
"122","2:171208441:C:T",103.265591305232
"123","2:171210842:T:C",69.141657515739
"124","2:171211133:C:T",64.1618801737733
"125","2:171213446:G:C",121.937746066794
"126","2:171219055:A:G",272.521715613227
"127","2:171219260:C:T",100.595406089535
"128","2:171220151:T:G",19.5732020050564
"129","2:171221207:A:G",63.8979116762617
"130","2:171224134:C:T",30.2950319326917
"131","2:171224420:A:G",212.30785619526
"132","2:171225167:C:T",31.8887133022077
"133","2:171225304:G:A",76.6992352712499
"134","2:171225546:T:G",230.598376034533
"135","2:171225841:A:G",292.348949390476
"136","2:171226245:T:C",39.2873382943774
"137","2:171226869:C:G",41.5927531580871
"138","2:171227618:C:T",42.2394791743461
"139","2:171230398:G:A",32.6398082411227
"140","2:171231423:T:C",31.4463168385651
"141","2:171232957:C:T",140.350884156145
"142","2:171232983:G:A",133.287660725407
"143","2:171236031:C:T",45.1566521674649
"144","2:171240024:T:C",15.7386708912293
"145","2:171242037:A:G",67.845312338009
"146","2:171242117:G:A",97.3995904136885
"147","2:171242804:G:A",36.3354214269013
"148","2:171243250:A:C",93.3028873695004
"149","2:171243489:A:G",27.5169237553475
"150","2:171243601:C:G",13.1360973069303
"151","2:171245882:C:T",46.3582777263244
"152","2:171249391:C:G",196.959736425132
"153","2:171250045:A:G",24.6056676121412
"154","2:171251016:A:G",125.838160061516
"155","2:171252778:G:A",21.1940208749015
"156","2:171253722:C:A",265.249885522321
"157","2:171262710:A:C",183.180106447598
"158","2:171263408:G:A",31.481534548926
"159","2:171266438:A:G",319.833059283981
"160","2:171269073:G:C",139.401157925681
"161","2:171269259:G:C",15.7386708912293
"162","2:171270157:A:T",43.5210918540108
"163","2:171272136:G:A",201.196316584482
"164","2:171272376:T:G",34.735756872427
"165","2:171272608:C:T",24.3172794532517
"166","2:171272928:G:A",14.8330013566872
"167","2:171275113:C:G",25.5449803605933
"168","2:171277360:C:A",21.6759276018716
"169","2:171277479:T:C",19.7773518190582
"170","2:171277774:A:T",54.862068443579
"171","2:171280553:G:A",13.8133255290253
"172","2:171281976:A:T",151.154962386202
"173","2:171284715:A:C",14.8330013566872
"174","2:171287710:A:G",273.101400468711
"175","2:171288607:C:T",33.127536470307
"176","2:171289110:G:A",225.041547180383
"177","2:171289235:T:C",37.8815282143912
"178","2:171290192:C:A",35.9069277175424
"179","2:171290974:G:A",17.3867396135352
"180","2:171291744:T:G",48.4888290555918
"181","2:171291870:T:C",19.7773518190582
"182","2:171295433:T:C",142.446035822134
"183","2:171295563:T:C",45.1352469826474
"184","2:171298340:C:T",44.2482074847182
"185","2:171300648:T:A",251.676794463264
"186","2:171300861:G:A",19.7150258893841
"187","2:171303279:A:G",107.909668564855
"188","2:171306227:C:T",258.591176801428
"189","2:171312272:A:C",21.6759276018716
"190","2:171312771:G:A",14.8330013566872
"191","2:171315361:G:A",36.5032637680868
"192","2:171316627:G:A",244.116773672062
"193","2:171316944:G:A",222.592384570743
"194","2:171317311:G:A",110.03093806259
"195","2:171318013:C:A",65.0790537458767
"196","2:171318216:A:G",271.914795580121
"197","2:171318785:A:G",114.299455606458
"198","2:171318816:T:A",281.296980302014
"199","2:171318894:A:T",65.410035804425
"200","2:171318947:A:G",49.9430786503168
"201","2:171319043:G:A",30.9744296663988
"202","2:171320971:G:C",14.8314310853646
"203","2:171321603:G:A",41.0451559053629
"204","2:171321679:A:G",53.1997725657044
"205","2:171322428:T:G",21.6485441209097
"206","2:171324499:T:C",223.792255497755
"207","2:171326478:G:T",59.145623476923
"208","2:171326865:G:A",34.3605084022317
"209","2:171327653:C:T",34.7039573145064
"210","2:171327683:C:T",56.8422585356905
"211","2:171329998:C:T",61.44982397078
"212","2:171330593:G:A",91.6320457222566
"213","2:171334460:G:A",143.368567660578
"214","2:171337730:G:A",71.1928533062475
"215","2:171344404:A:G",136.418299135715
"216","2:171344922:G:A",52.9905954831632
"217","2:171345022:T:C",292.058633570692
"218","2:171346146:T:G",19.1177188841947
"219","2:171346700:G:A",20.9707899629849
"220","2:171347723:G:A",106.196754996335
"221","2:171347979:A:G",29.2669511025844
"222","2:171348094:C:T",26.6272115415858
"223","2:171351099:A:G",140.73302687507
"224","2:171351145:C:T",232.24826235977
"225","2:171353397:C:T",29.3244549679456
"226","2:171353552:A:G",283.249488567133
"227","2:171354526:T:A",30.1712601064889
"228","2:171356492:C:G",16.8521919542752
"229","2:171361804:A:G",67.1990407765518
"230","2:171362903:A:G",103.535695928099
"231","2:171364634:G:C",268.768980097045
"232","2:171367570:T:C",42.6482628602237
"233","2:171368383:A:G",35.5185325459739
"234","2:171368703:T:C",62.2421678663403
"235","2:171370372:A:G",246.33921818208
"236","2:171370590:C:G",244.464668658952
"237","2:171375773:C:T",38.0784044186034
"238","2:171380643:T:G",44.9675605915032
"239","2:171381683:G:A",171.436929944379
"240","2:171382362:C:T",84.7319877008819
"241","2:171386194:G:T",40.8881373024917
"242","2:171386223:T:C",41.9695459796865
"243","2:171386859:G:T",20.2938896983569
"244","2:171387595:G:A",207.392885096938
"245","2:171387934:C:G",23.382736165959
"246","2:171388630:A:T",35.5185325459739
"247","2:171389183:A:G",25.3926533462407
"248","2:171389363:C:T",40.6097616762221
"249","2:171392992:C:T",29.8056895543754
"250","2:171393451:C:T",22.0139932074568
"251","2:171397319:A:G",107.123573173997
"252","2:171400275:T:C",28.0384975568722
"253","2:171400449:T:C",59.3442177527907
"254","2:171400879:C:T",63.1329210079058
"255","2:171405483:T:A",222.339802731454
"256","2:171406682:A:G",15.5780439744695
"257","2:171409728:A:G",27.5369044812772
"258","2:171410364:A:G",40.9960064221289
"259","2:171415428:A:G",23.2147184391494
"260","2:171415792:G:A",79.6932901629485
"261","2:171416966:A:G",59.5671443163092
"262","2:171417007:A:G",14.3361801446533
"263","2:171417829:G:A",56.5275416106641
"264","2:171419216:A:G",9.79374472083645
"265","2:171421125:G:A",223.570850169583
"266","2:171421928:G:A",27.3492542752548
"267","2:171422330:C:T",167.185921820339
"268","2:171424479:G:T",243.856417718924
"269","2:171425267:G:A",34.2848496684092
"270","2:171425401:T:A",244.411466624635
"271","2:171425505:C:T",40.6075197656331
"272","2:171425800:G:C",166.827403407108
"273","2:171427078:A:G",142.403250040051
"274","2:171429369:T:C",70.6918244394063
"275","2:171430520:A:G",107.755021235153
"276","2:171430701:T:C",21.4010421114927
"277","2:171431835:C:G",36.7315475679095
"278","2:171432877:A:G",15.2776642820922
"279","2:171435002:A:G",226.998096526461
"280","2:171438669:G:A",162.910772185212
"281","2:171439224:A:G",31.9609137347232
"282","2:171439564:C:A",303.618743494847
"283","2:171439648:A:G",116.267503358864
"284","2:171441202:A:G",111.711328475057
"285","2:171442033:A:C",122.024737308219
"286","2:171442895:C:T",25.7809965100704
"287","2:171445415:T:C",23.7926684375401
"288","2:171448075:A:G",155.26785639896
"289","2:171448117:T:C",15.8454012830994
"290","2:171452765:C:T",27.6062694635052
"291","2:171453105:G:A",296.160104249457
"292","2:171454514:A:G",15.8067310023153
"293","2:171458874:C:T",71.6786229876097
"294","2:171460433:C:A",53.6145251769166
"295","2:171460755:C:T",26.9497650589604
"296","2:171461437:C:G",41.4647680486244
"297","2:171462691:C:T",29.7997242545421
"298","2:171463257:A:G",218.840257948008
"299","2:171464574:T:C",30.0469167263872
"300","2:171465483:A:G",78.0404125065562
"301","2:171466718:C:T",273.436999925726
"302","2:171466800:G:A",195.269719776316
"303","2:171467521:C:T",39.9197803290102
"304","2:171469988:C:T",290.033179493711
"305","2:171470196:G:C",133.287660725407
"306","2:171470319:A:G",254.89821962089
"307","2:171470349:G:A",16.7827747729017
"308","2:171470617:C:A",98.892963606749
"309","2:171470880:T:A",174.390367118101
"310","2:171472301:C:T",42.65094108532
"311","2:171472433:A:G",231.671346418339
"312","2:171473135:G:C",47.1244868759412
"313","2:171473898:A:C",50.5618968908903
"314","2:171478520:G:A",79.1285182510328
"315","2:171480693:T:C",22.7961324772867
"316","2:171481453:T:G",92.5062353017115
"317","2:171482636:G:C",133.287660725407
"318","2:171484059:T:C",35.7288127739685
"319","2:171484861:G:A",261.329319577257
"320","2:171485146:C:T",38.8973838818432
"321","2:171485766:C:A",38.5055390489242
"322","2:171488378:A:T",35.0621375476221
"323","2:171492369:C:G",48.0632335377643
"324","2:171493831:G:A",35.2074085812601
"325","2:171495421:G:T",283.821518093862
"326","2:171495711:C:T",44.294225807147
"327","2:171495900:A:G",279.282281167422
"328","2:171497374:A:G",44.2345328077308
"329","2:171500624:A:G",266.895041817637
"330","2:171502432:G:A",25.8306436873725
"331","2:171502717:G:T",60.4558729918978
"332","2:171503028:C:T",20.0336304711817
"333","2:171504336:A:T",100.727494556017
"334","2:171506025:A:G",111.060117382438
"335","2:171511025:G:T",31.1299257767674
"336","2:171511937:T:C",64.2456961916758
