19:8585167:A:C,19:8586086:C:A,19:8588164:G:A,19:8588193:A:G,19:8588997:C:T,19:8592889:T:C,19:8596457:C:T,19:8597865:C:T,19:8600315:C:G,19:8601959:G:A,19:8603573:A:G,19:8609696:C:G,19:8610681:C:T,19:8614738:A:G,19:8615608:C:T,19:8615920:T:C,19:8615982:C:T,19:8617106:G:A,19:8620823:A:G,19:8620861:C:G,19:8621212:C:T,19:8621494:G:A,19:8621910:C:T,19:8621941:G:A,19:8625106:C:T,19:8626097:A:G,19:8626736:G:A,19:8627047:C:T,19:8627125:C:T,19:8627569:C:T,19:8628292:A:G,19:8630242:C:T,19:8630873:G:C,19:8634279:C:G,19:8634947:C:T,19:8636422:C:T,19:8636977:G:A,19:8637832:C:T,19:8638087:C:T,19:8638827:C:T,19:8639093:C:T,19:8640516:C:T,19:8641238:C:T,19:8641357:A:G,19:8642956:C:A,19:45653040:G:A,19:45657486:C:T,19:45658980:C:T,19:45659277:C:A,19:45659606:G:A,19:45659938:G:C,19:45660972:A:C,19:45662432:G:A,19:45663096:G:A
19:8585167:A:C,0.197643347935366,-0.00218206569550583,-0.0119195335597864,4.10039546823171e-05,-0.0023885850201415,-0.00342077986642231,-0.000918480885322204,-0.00627345513638922,-0.00485102137322579,-0.00460054760138728,-0.00663277844002508,-0.00158386068979732,-0.00716096685079748,-0.000652093448150204,-0.00585203726504258,-0.00898888448976187,-0.00766461646561778,-0.00201754678896693,-0.00132249248814498,-0.00795013868690964,-0.00665228950935326,-0.00354295207373845,0.000174329528339179,-0.0058991545301641,-0.000557200015581127,-0.0095465709011826,-0.00743695643230247,0.000116484250743731,-0.00576401023056405,-0.00179863074011255,-0.000699289969235739,-0.00131733830109404,-0.0144926283222082,-0.00420519653414608,1.79485126610146e-05,-0.00284236269193805,-0.00299632074897538,-0.00166914423207132,-0.00119912554974899,-0.00360566065177448,-0.0050410431541863,-0.00115436531665214,-0.000916210826014563,-3.43261912778559e-05,-0.00437242391485526,-0.00257642689524218,-0.00341397213746264,-0.000321506906193925,-0.00357021217038067,-0.00179970568511401,-0.00373423899202185,-0.000159933049933336,-0.0081402833980011,-0.0021537493588708
19:8586086:C:A,-0.00218206569550583,0.215291002721578,0.00116567508027554,-0.00197415572282011,-0.0023033204694709,-0.00315536837937369,-0.00330667467692436,-0.0115144091667365,-0.00800775654302566,-0.00103059508692382,-0.00629154502996432,-0.00500407631694122,-0.0011483247472972,-0.0022113591071431,-8.90839649958508e-06,-0.00398481624979174,-0.00937396639305454,0.000149857991929458,-0.0114564364826228,-0.00251168249745337,-0.0134402026180434,-0.00427792090180823,0.00111437781820278,-0.0090531057104597,-0.00448047246240257,-0.0142749746254327,-0.00243605692040649,0.000777371859251197,-0.000319644276375985,-0.00160167995402372,-0.017917298194809,-0.00621371038469309,1.07133244835467e-05,-0.0027179482084625,0.000260901322293172,-0.00302803584480227,-0.00194737857563521,-0.00320999385356657,-0.00164810945392535,-0.00363773881547624,-0.00192963309856875,-0.023720037852764,-0.000426287787739454,-0.00297639126811067,-0.00289144444047551,-0.00177217279184383,-0.00449590730609994,-0.00164181346827963,-0.0048589290573684,-0.00422287725355464,3.96396037585234e-05,-0.000578990219221254,-7.32895314063953e-05,-0.00355203388446768
19:8588164:G:A,-0.0119195335597864,0.00116567508027554,0.0421597957084523,-0.000164954232046988,0.00016225553760929,-0.00415591211691257,-0.00168982862727063,-0.00349755478008706,-0.0011481808813194,-0.000581746251062221,-1.65971038752488e-05,-0.00269778466860959,0.00024576743889515,-2.88161718131619e-06,-2.39374360511135e-05,-0.00022987309853395,-0.000878200505290749,-0.00111279266933995,-0.000684494739041419,-0.00146668107743331,-0.00070867247494899,-0.000250098117759556,0.000135585503274527,0.000327222129334004,-0.000264217161496383,-0.00143388001020739,0.00016225553760929,-0.000231061181822589,7.99725983622324e-05,-0.00011030060769901,-0.00243486029337658,0.000169323161498092,-9.23342042504771e-05,-0.00186245431143739,-7.60873135643436e-05,-0.000672994544747674,0.000532962182859364,0.000343371282739646,0.000106832595291095,0.000523180866811579,-9.57862505410745e-05,-0.00440988409618681,0.000401286755349339,-5.72693396883039e-05,0.000507938764890525,-0.00063730325680833,-0.00198341406310876,-0.000153103007749955,-0.0014543129936202,-7.4576827122641e-05,0.000147849575456327,4.51089237705204e-05,0.000176302791722094,-0.000119123014222566
19:8588193:A:G,4.10039546823171e-05,-0.00197415572282011,-0.000164954232046988,0.0515890314028877,3.63294701726247e-05,-8.66076817285233e-06,-0.00175775134113376,-0.00500218266529906,-0.00155005351861437,-0.00148839007103074,7.94658546965366e-05,-0.00327827934919567,-0.000342715776422864,2.50756019326559e-06,-4.23570568131026e-06,-0.00238495004408756,-0.00177302988976091,-0.00237299117833611,-0.00195711081157768,-0.00138237614781733,-6.30162036960868e-05,-5.51837236786312e-05,2.88968327923911e-05,6.77710256091757e-05,-0.00391746981031549,-0.00237917588718828,-0.00263081140551691,-5.14397592477067e-05,-0.0013261412561838,-2.28009595897305e-05,-0.000670742511341249,-0.00157332086051198,-9.38565691122051e-06,-0.000505733423706189,-1.6507892884654e-05,-0.000723412395217338,-0.000572174997762076,-0.00334752047990428,2.41870667165855e-05,-1.23290991931313e-05,-0.00188283765405828,-0.000976536697913311,8.14400558963868e-05,-1.01799920280143e-05,-0.000113632443651035,-4.42039371648661e-05,-0.000645377673014202,-3.36508566851634e-05,1.07660814965271e-05,-0.00196128764193748,3.40476571745185e-05,1.07660814965271e-05,-0.00299506962487595,-2.44329776402097e-05
19:8588997:C:T,-0.0023885850201415,-0.0023033204694709,0.00016225553760929,3.63294701726247e-05,0.0658252256526675,9.12786068951732e-06,-0.00200548634835851,-0.00384901526038206,-0.00345385075847382,-8.92024273069225e-05,0.000262100999730563,-0.00269749611894721,-7.27882895139587e-05,-0.00167297830127833,-0.000563602401995489,-0.00180359759432047,6.62125807142644e-05,0.000285007318980846,-7.36588817851214e-05,-0.00473466193157623,-0.00481540355404331,-0.00185285597684626,-3.78539724756877e-05,-9.57659828859647e-05,-0.00207480777834235,-0.00264077992906486,-0.000311045929207054,-0.000593126494950802,-0.00145218876489661,2.62470647252044e-05,-0.00298804721131329,-5.11261164799492e-05,1.71783175053619e-05,-0.000182970878479516,1.9859055544913e-05,0.000157901074948619,-0.000288474414822382,-0.000379751927461314,-3.24889382410376e-05,-0.00126356373632852,-0.00694024267547988,-0.0045009341249127,-0.0001178104065227,-0.00168869339759681,-0.00116312805183494,-0.00213234077313196,-0.00209273530565923,3.94660210885078e-05,-1.44609981518329e-05,1.39074651137605e-05,-4.71853648562615e-05,-0.00139689391639308,-5.24116472035985e-05,-0.00200548634835851
19:8592889:T:C,-0.00342077986642231,-0.00315536837937369,-0.00415591211691257,-8.66076817285233e-06,9.12786068951732e-06,0.0454326982538529,-6.41747780782964e-06,2.8633179442572e-05,-0.000102690700667374,1.50393010764915e-05,-4.36832657575437e-05,-0.00153242502665041,1.28081828121296e-05,8.14335016308121e-07,-1.05520028981232e-06,-0.00200060638538258,-1.67436871274518e-05,1.03222366210076e-05,-5.43954164378135e-07,-4.13626114159626e-05,-1.72672800733409e-05,-1.50933973648293e-05,7.26548056384502e-06,1.60802914956903e-05,-0.00190259754579092,-0.00271564009631398,9.12786068951732e-06,-1.4062048389718e-05,-0.000888308921825676,-5.9921786270678e-06,-0.00236826216131014,9.37543464019086e-06,-0.00492314490206613,-0.0059419669407399,-4.36298639083788e-06,-4.6920991482402e-05,2.31675407729171e-05,-0.000121682263587886,6.18140114383436e-06,-6.60323207233304e-05,-0.00224000061364293,-0.00219503630484219,1.88329221000316e-05,-2.55038031049537e-06,-3.25710102719867e-05,-1.18817732941423e-05,-0.0057389441095177,4.74420944307496e-07,2.82050184186033e-06,-3.33852831513326e-06,8.61928667905687e-06,-7.32714981763749e-05,9.61867254112292e-06,-0.00180582946972141
19:8596457:C:T,-0.000918480885322204,-0.00330667467692436,-0.00168982862727063,-0.00175775134113376,-0.00200548634835851,-6.41747780782964e-06,0.0621652409110869,-7.71222387401238e-05,5.59851128079103e-05,4.84246618235318e-05,-0.00219377440359381,-0.00548465004758203,-0.0016870403186342,2.05297221445022e-06,-0.00277950148599437,-0.00114416535413397,-0.00609516031852042,-0.00236257901786541,1.68540617018209e-05,-0.000103632705093837,-4.65378594070032e-05,-4.09125606770644e-05,2.20522446729987e-05,5.25438690157642e-05,-0.00363322274828448,-0.00178834804120687,-0.00556541974075753,-3.82140834513933e-05,-0.00828610638177096,-1.70102532965899e-05,-2.1170603542231e-05,2.87357713295577e-05,-0.00258071447719121,9.29530606583739e-05,-1.23904191751123e-05,-0.000115040027329094,-0.0054535697776954,5.73264801664308e-05,1.8486480030333e-05,-0.000173281767824385,-2.09041822323286e-05,3.85359517132144e-05,6.3513370890611e-05,-7.53871917336113e-06,-8.30409303915758e-05,-0.000120145999787269,-0.000941505484089333,-2.51265429946912e-05,8.21200237233199e-06,-9.82821391737332e-06,-0.00209820541201289,8.21200237233199e-06,2.95754322268138e-05,-1.8204911899744e-05
19:8597865:C:T,-0.00627345513638922,-0.0115144091667365,-0.00349755478008706,-0.00500218266529906,-0.00384901526038206,2.8633179442572e-05,-7.71222387401238e-05,0.15625082777188,-4.37183907742167e-06,-0.00171396431742377,-5.37305128873733e-05,-0.000289955425750943,-0.000876633013401573,2.06539004672379e-05,-0.00204858108756767,-0.00483939983816439,-0.00221112860805039,-0.000214908740312048,-0.000596131092798657,-4.30501580073184e-05,-0.000171546179490889,-0.00270036710638877,-0.000100988398076041,-0.00124823341107749,-0.0031877872378665,-0.00711121132079695,-0.00542326254352865,0.000222230729340467,-0.001448475741606,-0.000104659974248911,-0.0141015812359795,-0.000957188964467726,-0.000715291870740487,-0.00342318156232047,-4.93667696668254e-05,-0.00558457852543537,-0.00141332852677944,-0.000735074670112468,-0.00153688360976911,-0.00322049720975714,-0.000416285456775078,-0.0128478991232752,-0.00127856427231876,-0.000539544808725978,-0.00290276881299523,-0.0066141020237156,-0.00930982602599828,9.50377218762455e-05,-0.00433862964879506,-0.00173690231648482,-0.0035993329082018,-0.00672482659456364,-0.00398343009197877,-0.00598617247999389
19:8600315:C:G,-0.00485102137322579,-0.00800775654302566,-0.0011481808813194,-0.00155005351861437,-0.00345385075847382,-0.000102690700667374,5.59851128079103e-05,-4.37183907742167e-06,0.13332281399978,-0.00113190800332053,-0.00678665997395456,-0.00119385620111956,-0.000152914410043614,-0.00265267467284147,-0.00282222078647631,-0.0065069145722183,-0.00363772997880396,-0.000128322138208681,-0.00058743949419604,-0.00043790958509593,-0.00208702262305493,0.000127527661874183,-7.86526296181478e-05,-0.000511721108943597,-0.00242071624720364,-0.00425793855371781,-0.000105693409024887,0.000120847770075372,-0.0117509907834745,-0.00204100991872647,-0.0103461514116057,-0.00579254775319527,-0.00574235246151744,-0.000397631268622689,4.08631275297111e-05,0.000322434897071844,-0.000405695023935948,0.000287937135053262,-6.88296598445604e-05,-0.00603561989765034,-0.0017390016995007,-0.00716518470164473,-0.000245967670716496,-0.00263547379548967,-0.000979146162189082,0.000100520422742889,-0.0165360805886823,8.11497094339586e-05,-0.00376578249601689,-0.00159498330981478,-0.000100917625435848,-3.09770075412885e-05,-0.000110364178597777,-0.00235715241992107
19:8601959:G:A,-0.00460054760138728,-0.00103059508692382,-0.000581746251062221,-0.00148839007103074,-8.92024273069225e-05,1.50393010764915e-05,4.84246618235318e-05,-0.00171396431742377,-0.00113190800332053,0.0418058072469991,-0.000208651809598059,-0.000124437720097514,-0.000823528705597099,-1.16167991093263e-05,7.39982514286197e-06,6.65693789811961e-05,0.000114845949135578,-0.0003554429411885,-1.97104657528868e-05,0.000248425958272236,0.000122433564518687,-0.00191933625479024,-6.68836060331301e-05,-0.00016888560740469,-0.000873094624957105,-0.00444023169778296,-8.92024273069225e-05,0.000104281289310393,-0.000841255424572473,4.56985554890821e-05,-0.00306507460724958,-9.12739752383374e-05,-0.00150736875280355,-0.000320400751784078,3.50773622130873e-05,0.00028263767481107,-0.000281437788046013,-0.0011029930828883,-5.8232368073341e-05,-0.000337073084802242,-9.19503791507736e-05,-0.00189328371872488,0.000800390846785071,1.76410536303351e-05,0.000212470802162024,-0.00518720668032469,-0.00527010926229154,6.9840079361505e-05,-2.61843258471117e-05,-0.00162271199795239,-0.00249196861512768,-2.61843258471117e-05,-9.33226527379816e-05,4.84246618235318e-05
19:8603573:A:G,-0.00663277844002508,-0.00629154502996432,-1.65971038752488e-05,7.94658546965366e-05,0.000262100999730563,-4.36832657575437e-05,-0.00219377440359381,-5.37305128873733e-05,-0.00678665997395456,-0.000208651809598059,0.133997101776489,-0.000579092766040734,-0.000388386471041891,-0.00353425621911541,1.43739240163754e-05,-0.000531813366876577,-0.000800262420463937,-0.00518407447642577,-0.00767420311890454,-0.000125739856216889,-0.00926834250593789,-0.00173040890624954,0.000561894498281923,0.00120898093648769,-0.00391836843393278,-0.00527241651022825,-0.00599277617188587,-0.000172786073806996,-0.00788800106013765,-0.00160186581319088,-0.010630166212072,1.46796391664594e-06,-9.41710572615051e-05,-0.00567924492771166,-0.000381631982825148,-0.000160249785077227,-0.00145126840100307,-0.00141541878730322,0.000257154980821461,-0.00123672420882315,-0.00549596826677057,-0.0100190067440837,-0.000883899779581476,-0.00869991724267294,-0.00118862613219761,-0.00127216419816634,-0.0018249848703058,-0.000800122345352428,-0.000505223670054455,-0.000213571671966228,-0.00122739371177083,-8.19836673020546e-05,-0.00380851929147052,-0.00242206927055655
19:8609696:C:G,-0.00158386068979732,-0.00500407631694122,-0.00269778466860959,-0.00327827934919567,-0.00269749611894721,-0.00153242502665041,-0.00548465004758203,-0.000289955425750943,-0.00119385620111956,-0.000124437720097514,-0.000579092766040734,0.153335409315814,-0.000850700964706519,-0.00193400722478998,-4.4479129271302e-05,-0.0100343295118357,-7.88664346980106e-05,-0.00024389817534809,-0.000733333693582416,-0.00242125336352839,-0.000366863420313557,-0.0122072520893655,0.000277063712601056,-0.000452860602947247,-4.28762212796308e-05,-0.00420359579146234,-0.00437170437252554,-0.000129248560703843,-0.0100189682760332,-0.00389588959118381,-0.00478088691108258,-0.00324430690486732,-0.00342117253920593,-0.000449444190504522,0.000218717143473768,-0.00466924053892992,-0.00367788604859598,-0.00135817427164353,-0.00386703792101706,-0.00259717954296912,-0.00785796479506295,-0.0018597424126896,0.000721231622633489,-0.00189446541867611,-0.00650037350606159,-0.003821856136077,-0.00582922773327121,-0.000365057485741005,-0.00619824359942456,-0.00510624032954077,-0.00091647719241994,-0.00619824359942456,-0.00111836532335108,-0.00232479363965865
19:8610681:C:T,-0.00716096685079748,-0.0011483247472972,0.00024576743889515,-0.000342715776422864,-7.27882895139587e-05,1.28081828121296e-05,-0.0016870403186342,-0.000876633013401573,-0.000152914410043614,-0.000823528705597099,-0.000388386471041891,-0.000850700964706519,0.0422370449355647,-8.9882121567797e-06,6.30029309345304e-06,-0.00167232803449924,9.66133874653607e-05,-8.68323171774321e-05,-6.58136637605722e-05,-0.00203136767411927,0.000102496324686285,9.20065186953423e-05,-5.49819670476737e-05,-0.000137775958259034,6.79796446343417e-05,-0.00443415925067647,-7.27882895139587e-05,8.69273958103989e-05,-0.002968255941731,3.81568990626135e-05,-0.00119571429014709,-7.45522085381367e-05,-0.000831842776130465,-0.000259173398819534,2.90971600120926e-05,0.000239047718872065,-0.000228144729757851,-0.000155698887121858,-4.76236352948689e-05,0.000294975447300949,-7.36876384292984e-05,-0.00214986004444206,0.000126189498685925,-0.00332536183250198,0.000178664699247655,7.27327901861585e-05,-0.000116259712900302,5.80739983631062e-05,-2.13883399391435e-05,1.95340593682758e-05,-0.00870309288870974,-2.13883399382553e-05,-7.62964950533629e-05,-0.0016870403186342
19:8614738:A:G,-0.000652093448150204,-0.0022113591071431,-2.88161718131619e-06,2.50756019326559e-06,-0.00167297830127833,8.14335016308121e-07,2.05297221445022e-06,2.06539004672379e-05,-0.00265267467284147,-1.16167991093263e-05,-0.00353425621911541,-0.00193400722478998,-8.9882121567797e-06,0.0554546010460389,4.14460296305208e-07,-0.00197875195779007,-0.00375589800273168,-7.26005774414062e-05,-0.00196819129182213,-0.00123403039046988,3.29273216870263e-06,3.232658328578e-06,-4.06803792252219e-06,-1.29245361950581e-05,8.79270906040119e-06,-0.00329407111683278,-5.54185618195646e-06,3.17529086490964e-06,-0.00362157963332299,-0.00173113345071219,-0.00147915232464335,-5.74065339176144e-06,-0.00220165967038088,-3.16071805759321e-05,1.53015108761423e-06,-2.2426365253736e-06,-2.62285525769457e-05,-0.00015435311512757,-3.33838332533531e-06,-0.000240903699093131,-5.11681802706221e-06,-0.00144590840400838,-1.71101032666598e-05,-0.00224007824088979,1.69883024003781e-06,-0.00272075887566903,-0.00973996535454003,2.59140218794585e-06,-1.3387950446031e-06,1.19720567415271e-06,-5.14387006145256e-06,-1.3387950446031e-06,-0.00306638143537441,-0.00175854189308389
19:8615608:C:T,-0.00585203726504258,-8.90839649958508e-06,-2.39374360511135e-05,-4.23570568131026e-06,-0.000563602401995489,-1.05520028981232e-06,-0.00277950148599437,-0.00204858108756767,-0.00282222078647631,7.39982514286197e-06,1.43739240163754e-05,-4.4479129271302e-05,6.30029309345304e-06,4.14460296305208e-07,0.0423820437401057,-0.00127708144168182,-8.18937808944042e-06,-0.00194362523544989,3.11820353537939e-06,-2.02350780682536e-05,-8.46861784431496e-06,-7.41033550166748e-06,3.57200775713551e-06,7.90644853410072e-06,4.12322194165426e-08,-0.00181394552217107,4.4941950987365e-06,-6.90802054403861e-06,-0.00229599904407607,-2.9370039582588e-06,-0.00521318090192491,4.61469325063746e-06,-2.02291903139695e-06,1.22923376384421e-05,-2.14350637772753e-06,-2.30333161574947e-05,1.13887673389712e-05,-0.000130595271153666,3.04404098727673e-06,-0.00260197615603097,-0.00210366308771892,-0.00494327669183203,9.25845221999566e-06,-1.24196394946097e-06,-1.59923408853402e-05,-5.82489661304919e-06,-0.000994389192841005,-4.44527560539143e-06,1.39095311180171e-06,-1.6255004089416e-06,4.24672475141108e-06,-0.00212436232027624,4.7330999572992e-06,-0.00277950148599437
19:8615920:T:C,-0.00898888448976187,-0.00398481624979174,-0.00022987309853395,-0.00238495004408756,-0.00180359759432047,-0.00200060638538258,-0.00114416535413397,-0.00483939983816439,-0.0065069145722183,6.65693789811961e-05,-0.000531813366876577,-0.0100343295118357,-0.00167232803449924,-0.00197875195779007,-0.00127708144168182,0.198136147086723,0.00044411537426603,0.000125839018215501,-0.020455235846899,0.00016876886504269,-0.00915715182320387,-0.00397228418152995,0.000608735424446394,-0.00342394199731633,-0.0017605497029507,-0.00129274203318541,-0.0103242976132734,3.12912226441142e-06,-0.0089665690704166,-0.00498592788623142,-0.00208102246981667,-0.00400521838602685,-0.0144060451245402,0.000444583919524177,-0.000216465011912526,0.000944642324497202,-0.00530505992753483,0.000152357477313902,0.000238505628646912,-0.00583380380200804,-0.00338710654060792,-0.00045225387507708,0.000338365738648427,-0.00426889512363626,-0.0045843470267446,-0.00268285805653612,-0.00699703897063264,-0.000594294184245392,-0.00926394249182572,-0.000404253731165483,-0.0138704982034459,-0.00401153708918578,-0.00524988119016356,-0.00234102605937903
19:8615982:C:T,-0.00766461646561778,-0.00937396639305454,-0.000878200505290749,-0.00177302988976091,6.62125807142644e-05,-1.67436871274518e-05,-0.00609516031852042,-0.00221112860805039,-0.00363772997880396,0.000114845949135578,-0.000800262420463937,-7.88664346980106e-05,9.66133874653607e-05,-0.00375589800273168,-8.18937808944042e-06,0.00044411537426603,0.100872462160423,-0.00627961663115784,1.57272988827728e-05,-0.000264841893340417,-0.000116118193068893,-0.000101242066441465,-0.000307139824192504,-0.00452637379301457,-0.00787049436737686,-0.00304692283885277,-0.00238507402711274,-9.41301358849955e-05,-0.00453812759432726,-4.24261870666243e-05,-0.0031646305999824,-0.00171214117659524,-3.1878331891555e-05,-0.00152697357349219,-3.03362707194665e-05,-0.000334674980911664,0.000196809544577903,-0.00162348319084327,-0.00574665311289468,-6.71562482050803e-05,-0.00402524258791015,-0.00279439803203463,0.000151359507825966,-1.96803315803962e-05,-0.000206958014885572,-0.00298515854289505,-0.00436179533511849,-6.1707014499035e-05,-0.00239092376770866,-0.00175655062135949,-0.000361502445848316,-6.61353068309722e-05,-0.00274738913620354,-7.64775468349299e-05
19:8617106:G:A,-0.00201754678896693,0.000149857991929458,-0.00111279266933995,-0.00237299117833611,0.000285007318980846,1.03222366210076e-05,-0.00236257901786541,-0.000214908740312048,-0.000128322138208681,-0.0003554429411885,-0.00518407447642577,-0.00024389817534809,-8.68323171774321e-05,-7.26005774414062e-05,-0.00194362523544989,0.000125839018215501,-0.00627961663115784,0.0679353960680644,-0.0037283735939182,-8.50036617228156e-05,-0.00219359852933465,0.000842640389223881,0.000440521519486481,-0.00011521218971744,-0.000976204750481102,-0.0021903222107551,-0.00246463598760727,-0.00033229837375881,-0.00147757156952188,2.97118714946976e-05,-0.00214092912535691,-6.04831045381005e-05,1.93650321520522e-05,-0.00037463252374792,-0.000393852883862067,-0.00435884419770094,-0.00241030801267605,-0.00328822702780052,-0.00128472755575526,-0.00042099830361586,-0.000218045537383915,-0.00177962452499258,-0.00474560010054237,-0.00387188766882929,-0.000898559396555143,-0.000970893408996254,-0.000115098518012502,4.44627285407506e-05,-0.000163819362762219,1.56980356971204e-05,-0.00284360679492313,-0.0014773278438911,-6.19960892587201e-05,-0.00208090847517006
19:8620823:A:G,-0.00132249248814498,-0.0114564364826228,-0.000684494739041419,-0.00195711081157768,-7.36588817851214e-05,-5.43954164378135e-07,1.68540617018209e-05,-0.000596131092798657,-0.00058743949419604,-1.97104657528868e-05,-0.00767420311890454,-0.000733333693582416,-6.58136637605722e-05,-0.00196819129182213,3.11820353537939e-06,-0.020455235846899,1.57272988827728e-05,-0.0037283735939182,0.155846332715091,-0.000139386139700548,-0.0112621596873046,-0.0035852452836016,-3.03840651803e-05,-0.00101215511272379,-0.00270995004265107,-0.00713083646688073,-0.00280972694099102,-0.000319696476743125,-0.00772243372402803,-0.00255898812999966,-0.0124236576633057,-0.000948433409270422,-2.2104882386742e-06,-0.00245360950341578,1.241522503026e-05,-0.000685020385848389,-0.00109655011873233,-0.000694117967300123,-8.6982584429407e-05,-0.000766816974711926,-0.0038282138524961,-0.0132791691628729,-0.00136116039591805,-0.000555185994871366,-0.0116850270891309,-0.00125635934434065,-0.00311931539004906,-0.000180114874090087,-9.89687059904654e-05,-0.00196551532149236,-0.00083033220423534,-1.05128066989479e-05,-0.00284547093098642,-0.00511757064704099
19:8620861:C:G,-0.00795013868690964,-0.00251168249745337,-0.00146668107743331,-0.00138237614781733,-0.00473466193157623,-4.13626114159626e-05,-0.000103632705093837,-4.30501580073184e-05,-0.00043790958509593,0.000248425958272236,-0.000125739856216889,-0.00242125336352839,-0.00203136767411927,-0.00123403039046988,-2.02350780682536e-05,0.00016876886504269,-0.000264841893340417,-8.50036617228156e-05,-0.000139386139700548,0.0671311238585921,-0.00135905605085096,-0.000955593330498772,-0.000474197513925745,-0.0010397821230157,3.51402854681382e-05,9.40015094625934e-05,-0.00208607843664055,-0.000204805846378164,-0.00148096778744922,-0.00017723547441495,-0.000871495153908164,0.00049487474586396,-0.000204819542003243,0.000494826131727244,-6.65133830102249e-05,-0.00198430860361842,-0.00063411369839983,-0.00169835045625799,-0.00202680554691348,-0.000480455322098727,-0.000236906706094331,-0.00173932554750778,0.000336820202731403,-0.00167839119674884,-0.000788733614684567,-0.00331980453100389,-0.00418588294273858,-0.000134771835499592,-0.00519923835934399,-0.0013040907527575,-0.00425095889842453,3.98316309535574e-05,-0.00244202082238587,-0.00302575625357093
19:8621212:C:T,-0.00665228950935326,-0.0134402026180434,-0.00070867247494899,-6.30162036960868e-05,-0.00481540355404331,-1.72672800733409e-05,-4.65378594070032e-05,-0.000171546179490889,-0.00208702262305493,0.000122433564518687,-0.00926834250593789,-0.000366863420313557,0.000102496324686285,3.29273216870263e-06,-8.46861784431496e-06,-0.00915715182320387,-0.000116118193068893,-0.00219359852933465,-0.0112621596873046,-0.00135905605085096,0.0799472434973417,-0.000101991851569672,5.57799783411639e-05,-0.00129752661044957,-0.0028494245409636,-0.00066916673454287,-0.00212092069389502,0.000369505082057131,-0.00184499301087637,-4.33698894868328e-05,0.000479480496021978,-0.000170640939447964,-3.27188960262959e-05,0.000243280784927968,-3.10970718473413e-05,-0.000279625359834945,0.000216346618693741,0.000145271115974843,4.59046588838774e-05,-0.000518188532277364,-0.00110203053913605,-0.000777881842861206,0.000163647966780367,-2.02768427026712e-05,0.000113244393643797,-0.00332857137609999,-0.00236465165180144,-6.27588675286006e-05,2.0057841096488e-05,-2.64155167508662e-05,6.46671205775107e-05,2.0057841096488e-05,-0.00269020425933508,-4.65378594070032e-05
19:8621494:G:A,-0.00354295207373845,-0.00427792090180823,-0.000250098117759556,-5.51837236786312e-05,-0.00185285597684626,-1.50933973648293e-05,-4.09125606770644e-05,-0.00270036710638877,0.000127527661874183,-0.00191933625479024,-0.00173040890624954,-0.0122072520893655,9.20065186953423e-05,3.232658328578e-06,-7.41033550166748e-06,-0.00397228418152995,-0.000101242066441465,0.000842640389223881,-0.0035852452836016,-0.000955593330498772,-0.000101991851569672,0.0697746870750341,4.97815817110947e-05,0.00012096999451483,-0.00266899982270186,-0.00364236391549788,6.23201347886848e-05,-8.34828896891793e-05,-0.011138639180051,-3.81626973462446e-05,-0.00138092133902301,6.44395097717521e-05,-2.85466732208306e-05,0.000221473555609641,-2.74904783204022e-05,-0.000241745439506502,0.000196368484513876,-0.00178513875090047,4.10502918013478e-05,-0.000917393294656677,5.30869604871143e-05,-0.00130051288953581,-0.00748765800206552,-1.77176378839405e-05,-0.0001772826948363,-7.2660648076095e-05,7.7080474577329e-05,-5.53164421299712e-05,1.79349334654688e-05,-2.30644980909744e-05,-0.0033849103346526,1.79349334654688e-05,6.65331888098919e-05,-4.09125606770644e-05
19:8621910:C:T,0.000174329528339179,0.00111437781820278,0.000135585503274527,2.88968327923911e-05,-3.78539724756877e-05,7.26548056384502e-06,2.20522446729987e-05,-0.000100988398076041,-7.86526296181478e-05,-6.68836060331301e-05,0.000561894498281923,0.000277063712601056,-5.49819670476737e-05,-4.06803792252219e-06,3.57200775713551e-06,0.000608735424446394,-0.000307139824192504,0.000440521519486481,-3.03840651803e-05,-0.000474197513925745,5.57799783411639e-05,4.97815817110947e-05,-0.000205692506440867,-7.18669632417956e-05,-0.000424998187933845,-8.06560824742064e-05,-3.78539724747995e-05,4.68814428824516e-05,-0.000220105568440765,2.07294228831145e-05,-0.000425003585601935,-3.88573647702728e-05,1.37085116476143e-05,-0.00013355239691748,1.55833532957672e-05,0.000131647670801982,-0.000117932805416388,-8.02697202235692e-05,-2.48443839110379e-05,0.000166495907543585,8.52367968189327e-05,-0.000533272498528525,-8.78070194483271e-05,8.52470748746725e-06,9.76020113272469e-05,3.9561491255391e-05,1.17968454373951e-05,3.12104189488238e-05,9.09347022064466e-05,1.10867220417532e-05,-3.58122316992393e-05,-1.110521117198e-05,-3.98493695099589e-05,-0.000526226252372197
19:8621941:G:A,-0.0058991545301641,-0.0090531057104597,0.000327222129334004,6.77710256091757e-05,-9.57659828859647e-05,1.60802914956903e-05,5.25438690157642e-05,-0.00124823341107749,-0.000511721108943597,-0.00016888560740469,0.00120898093648769,-0.000452860602947247,-0.000137775958259034,-1.29245361950581e-05,7.90644853410072e-06,-0.00342394199731633,-0.00452637379301457,-0.00011521218971744,-0.00101215511272379,-0.0010397821230157,-0.00129752661044957,0.00012096999451483,-7.18669632417956e-05,0.0488306558341076,8.56628560548245e-05,-0.00314170001928371,-9.57659828859647e-05,0.000114463207105509,-0.000175608599726651,4.96002809988738e-05,-0.00260379516347786,-0.000996173850301041,3.03354556896451e-05,-0.000334381851176069,3.81469132699763e-05,0.000318319523473498,0.000334319829071283,-0.000203506726579761,-0.00228371367134272,-0.000670698589383179,-0.000700534896781235,-0.00265543068987473,-0.000218886395233042,1.88666829377127e-05,0.000236747005533999,9.49688475442301e-05,-0.00651900060626343,7.63016983151843e-05,-2.83898267525728e-05,-0.000892436638231686,-9.13651372789204e-05,-2.83898267525728e-05,-0.000100067079997324,-0.00122273103995507
19:8625106:C:T,-0.000557200015581127,-0.00448047246240257,-0.000264217161496383,-0.00391746981031549,-0.00207480777834235,-0.00190259754579092,-0.00363322274828448,-0.0031877872378665,-0.00242071624720364,-0.000873094624957105,-0.00391836843393278,-4.28762212796308e-05,6.79796446343417e-05,8.79270906040119e-06,4.12322194165426e-08,-0.0017605497029507,-0.00787049436737686,-0.000976204750481102,-0.00270995004265107,3.51402854681382e-05,-0.0028494245409636,-0.00266899982270186,-0.000424998187933845,8.56628560548245e-05,0.0891030217748883,-0.00358851597174326,-0.00363513403489346,0.000247478580859273,-0.00486769845374324,-3.27864331941541e-05,-9.02800097701828e-06,-0.00160101546586322,-0.00184852228601251,-0.000491967953559325,0.000148442104055846,-0.00526434528798703,-0.00201947642171785,9.2060620787926e-05,-0.00169560563647586,-0.000512959266748325,-0.00513909821568337,3.96967245301916e-05,-0.00202049470562393,-0.00083343959585136,-0.00119167170622614,-6.49061169806231e-05,-0.000657182124604638,0.000133548962994112,-0.00046673407168818,-1.92857132415014e-05,-2.96390184209017e-05,-0.00192734560308061,-0.0028807338946697,-0.00263082781405455
19:8626097:A:G,-0.0095465709011826,-0.0142749746254327,-0.00143388001020739,-0.00237917588718828,-0.00264077992906486,-0.00271564009631398,-0.00178834804120687,-0.00711121132079695,-0.00425793855371781,-0.00444023169778296,-0.00527241651022825,-0.00420359579146234,-0.00443415925067647,-0.00329407111683278,-0.00181394552217107,-0.00129274203318541,-0.00304692283885277,-0.0021903222107551,-0.00713083646688073,9.40015094625934e-05,-0.00066916673454287,-0.00364236391549788,-8.06560824742064e-05,-0.00314170001928371,-0.00358851597174326,0.214479174074913,-0.000989266770723418,0.000325717412768434,-0.00750305771917903,-0.00794614061933352,-0.0164209775682407,-0.00872731859541886,-0.000437218181814192,-0.00402168554911508,0.00034924667698899,-0.00832090471412616,-0.000847874242707825,-0.00525812335576159,-0.00321877912267166,-0.00760661185908695,-0.000141403388468575,-0.0148931912298806,-0.00502381826759013,-0.00263533693709483,0.000395470595710101,-0.00311187723361339,-0.0122337112232467,0.000748259481452962,-0.00632043508847513,-2.31664893153294e-05,-0.00206221536464302,6.81254646890395e-05,-0.00122607173905287,-0.00310064442894475
19:8626736:G:A,-0.00743695643230247,-0.00243605692040649,0.00016225553760929,-0.00263081140551691,-0.000311045929207054,9.12786068951732e-06,-0.00556541974075753,-0.00542326254352865,-0.000105693409024887,-8.92024273069225e-05,-0.00599277617188587,-0.00437170437252554,-7.27882895139587e-05,-5.54185618195646e-06,4.4941950987365e-06,-0.0103242976132734,-0.00238507402711274,-0.00246463598760727,-0.00280972694099102,-0.00208607843664055,-0.00212092069389502,6.23201347886848e-05,-3.78539724747995e-05,-9.57659828859647e-05,-0.00363513403489346,-0.000989266770723418,0.0975256320885403,-0.000593126494950802,-0.00179574424552964,-0.00241648790052906,-0.00125056755223873,-5.11261164799492e-05,1.71783175053619e-05,-0.000182970878479516,1.98590555458011e-05,0.000157901074948619,-0.00243546216611534,-0.00010782950970345,-0.00120152333676948,-0.00126356373632852,-0.000694655820158374,-0.00537861009388596,-0.0001178104065227,-0.00168869339759681,-0.00116312805183671,-0.00481840816633827,-0.00290490737964921,3.9466021089396e-05,-1.44609981518329e-05,-0.0036798286520261,-4.71853648562615e-05,-1.44609981518329e-05,-0.00234518387195504,-0.00244248518890622
19:8627047:C:T,0.000116484250743731,0.000777371859251197,-0.000231061181822589,-5.14397592477067e-05,-0.000593126494950802,-1.4062048389718e-05,-3.82140834513933e-05,0.000222230729340467,0.000120847770075372,0.000104281289310393,-0.000172786073806996,-0.000129248560703843,8.69273958103989e-05,3.17529086490964e-06,-6.90802054403861e-06,3.12912226441142e-06,-9.41301358849955e-05,-0.00033229837375881,-0.000319696476743125,-0.000204805846378164,0.000369505082057131,-8.34828896891793e-05,4.68814428824516e-05,0.000114463207105509,0.000247478580859273,0.000325717412768434,-0.000593126494950802,-0.00612227643023555,0.00104787233443293,-3.56624600730271e-05,0.000274741961616698,6.08072769630041e-05,-2.65689031602179e-05,0.000210932944139763,-2.57497253919325e-05,-0.000223493487785831,0.000186710902202236,0.000124231026418897,3.86929290598914e-05,0.000367454025152369,5.03382176564315e-05,0.000567452254464307,0.000139967245851302,-1.65036780046535e-05,0.00391390801885727,-6.77724392286194e-05,-0.000179110703087737,-5.1724587669888e-05,1.68999637466527e-05,-2.14754659424443e-05,5.47605459617628e-05,1.68999637466527e-05,6.27753607496118e-05,-3.82140834513933e-05
19:8627125:C:T,-0.00576401023056405,-0.000319644276375985,7.99725983622324e-05,-0.0013261412561838,-0.00145218876489661,-0.000888308921825676,-0.00828610638177096,-0.001448475741606,-0.0117509907834745,-0.000841255424572473,-0.00788800106013765,-0.0100189682760332,-0.002968255941731,-0.00362157963332299,-0.00229599904407607,-0.0089665690704166,-0.00453812759432726,-0.00147757156952188,-0.00772243372402803,-0.00148096778744922,-0.00184499301087637,-0.011138639180051,-0.000220105568440765,-0.000175608599726651,-0.00486769845374324,-0.00750305771917903,-0.00179574424552964,0.00104787233443293,0.201169371792802,-0.000244972892610384,-0.00349243640467867,-0.0165483477458004,-0.00033389604249745,-0.00212932215523765,0.000375579171066676,-0.00195139208368467,-0.00762726866267904,-0.00407654331470875,-0.000431821357397943,0.00115773900963845,-0.00592546983743469,-0.00803751785176399,-6.06881099933787e-05,-0.000951597717843811,-0.00437436312788986,-0.0127962722490409,-0.00431459777374865,-0.000291496354898335,-0.00155668330660408,-0.000844579259197786,-0.0018215163028561,-0.00341543170472658,-0.00805978164439125,-0.00394309674675686
19:8627569:C:T,-0.00179863074011255,-0.00160167995402372,-0.00011030060769901,-2.28009595897305e-05,2.62470647252044e-05,-5.9921786270678e-06,-1.70102532965899e-05,-0.000104659974248911,-0.00204100991872647,4.56985554890821e-05,-0.00160186581319088,-0.00389588959118381,3.81568990626135e-05,-0.00173113345071219,-2.9370039582588e-06,-0.00498592788623142,-4.24261870666243e-05,2.97118714946976e-05,-0.00255898812999966,-0.00017723547441495,-4.33698894868328e-05,-3.81626973462446e-05,2.07294228831145e-05,4.96002809988738e-05,-3.27864331941541e-05,-0.00794614061933352,-0.00241648790052906,-3.56624600730271e-05,-0.000244972892610384,0.0431438249870837,-0.000583709827126633,2.70479430177772e-05,-1.13664469001407e-05,8.83015500301454e-05,-1.15959004727273e-05,-0.00556672992609286,7.88485572122966e-05,-0.00200700782233021,1.73805530723214e-05,-0.000144684690241093,-0.00193441642130399,-0.000772125334618678,-0.000972105675124624,-7.03805163926319e-06,-7.7145383598598e-05,-3.05945586243084e-05,-9.17289617330397e-06,-2.3481808076653e-05,7.71484301065328e-06,-9.1726840203421e-06,2.46129950625118e-05,7.71484301065328e-06,2.78383291414386e-05,-1.70102532965899e-05
19:8628292:A:G,-0.000699289969235739,-0.017917298194809,-0.00243486029337658,-0.000670742511341249,-0.00298804721131329,-0.00236826216131014,-2.1170603542231e-05,-0.0141015812359795,-0.0103461514116057,-0.00306507460724958,-0.010630166212072,-0.00478088691108258,-0.00119571429014709,-0.00147915232464335,-0.00521318090192491,-0.00208102246981667,-0.0031646305999824,-0.00214092912535691,-0.0124236576633057,-0.000871495153908164,0.000479480496021978,-0.00138092133902301,-0.000425003585601935,-0.00260379516347786,-9.02800097701828e-06,-0.0164209775682407,-0.00125056755223873,0.000274741961616698,-0.00349243640467867,-0.000583709827126633,0.18028796263597,-0.0047192921080681,-0.000226073289663287,-0.000441906884849352,9.93323068589902e-05,0.000235017818167371,-0.00578521602953153,-0.00124141432056479,1.56015123513598e-05,-0.00302318603686036,-0.00121180164428969,1.41749510715883e-05,-6.42130499652893e-05,-0.00506608426571553,0.000821265403669891,-0.0113608371743839,-0.0110854053282576,-0.000697179861262498,-0.00146677600218492,-0.00238165846457816,-0.0032932305054425,-0.0021746477285971,-0.00247653751368571,-0.000752363584459737
19:8630242:C:T,-0.00131733830109404,-0.00621371038469309,0.000169323161498092,-0.00157332086051198,-5.11261164799492e-05,9.37543464019086e-06,2.87357713295577e-05,-0.000957188964467726,-0.00579254775319527,-9.12739752383374e-05,1.46796391664594e-06,-0.00324430690486732,-7.45522085381367e-05,-5.74065339176144e-06,4.61469325063746e-06,-0.00400521838602685,-0.00171214117659524,-6.04831045381005e-05,-0.000948433409270422,0.00049487474586396,-0.000170640939447964,6.44395097717521e-05,-3.88573647702728e-05,-0.000996173850301041,-0.00160101546586322,-0.00872731859541886,-5.11261164799492e-05,6.08072769630041e-05,-0.0165483477458004,2.70479430177772e-05,-0.0047192921080681,0.0679697908244155,1.76536467915156e-05,-0.000186115492695649,2.0467961396875e-05,0.000164717443051465,-0.000163426702321168,-0.000110203483428606,-0.00113739304564753,-0.00128449256182428,-5.05532131720443e-05,-0.00112000690739045,-0.000120299352296627,-0.00162327601788803,-0.00130662101183088,5.12938114107797e-05,-0.00142364124088612,4.07384542366884e-05,-1.48812358506945e-05,-0.00159594452920064,-4.84335773220934e-05,-1.48812358506945e-05,-5.37604202204278e-05,2.87357713295577e-05
19:8630873:G:C,-0.0144926283222082,1.07133244835467e-05,-9.23342042504771e-05,-9.38565691122051e-06,1.71783175053619e-05,-0.00492314490206613,-0.00258071447719121,-0.000715291870740487,-0.00574235246151744,-0.00150736875280355,-9.41710572615051e-05,-0.00342117253920593,-0.000831842776130465,-0.00220165967038088,-2.02291903139695e-06,-0.0144060451245402,-3.1878331891555e-05,1.93650321520522e-05,-2.2104882386742e-06,-0.000204819542003243,-3.27188960262959e-05,-2.85466732208306e-05,1.37085116476143e-05,3.03354556896451e-05,-0.00184852228601251,-0.000437218181814192,1.71783175053619e-05,-2.65689031602179e-05,-0.00033389604249745,-1.13664469001407e-05,-0.000226073289663287,1.76536467915156e-05,0.0729387839578085,-0.00593021407741645,-8.24225665763123e-06,-0.000654760298901103,4.37215140722813e-05,-0.000192704732299376,1.16294134420158e-05,-0.00178431650960853,1.57596047971609e-05,-0.000257551455346672,-0.000509276287336213,-0.00223961410005913,-6.15953618927634e-05,-2.25305297139045e-05,-7.62375369394164e-05,5.70375813921942e-05,-0.00191177919630814,-6.40573820298584e-06,-0.00534511373483237,5.29300079765704e-06,1.81205191349676e-05,-1.21825660377439e-05
19:8634279:C:G,-0.00420519653414608,-0.0027179482084625,-0.00186245431143739,-0.000505733423706189,-0.000182970878479516,-0.0059419669407399,9.29530606583739e-05,-0.00342318156232047,-0.000397631268622689,-0.000320400751784078,-0.00567924492771166,-0.000449444190504522,-0.000259173398819534,-3.16071805759321e-05,1.22923376384421e-05,0.000444583919524177,-0.00152697357349219,-0.00037463252374792,-0.00245360950341578,0.000494826131727244,0.000243280784927968,0.000221473555609641,-0.00013355239691748,-0.000334381851176069,-0.000491967953559325,-0.00402168554911508,-0.000182970878479516,0.000210932944139763,-0.00212932215523765,8.83015500301454e-05,-0.000441906884849352,-0.000186115492695649,-0.00593021407741645,0.0578768939821899,7.02107751369141e-05,0.00058643823044946,-0.000548228610881552,-0.000732098173844342,-0.000119971334324731,-7.72661049017742e-05,-0.000204939010764349,-0.000267992624713997,-0.000406793109213766,2.93425171120631e-05,0.00043570944158855,0.000170416098618453,-0.00540063756499354,0.000140521960627638,-5.52310396466638e-05,-0.000584358554479358,-0.000176570909667717,-0.00248613800799635,-0.000189224040287428,-0.00568444178685024
19:8634947:C:T,1.79485126610146e-05,0.000260901322293172,-7.60873135643436e-05,-1.6507892884654e-05,1.9859055544913e-05,-4.36298639083788e-06,-1.23904191751123e-05,-4.93667696668254e-05,4.08631275297111e-05,3.50773622130873e-05,-0.000381631982825148,0.000218717143473768,2.90971600120926e-05,1.53015108761423e-06,-2.14350637772753e-06,-0.000216465011912526,-3.03362707194665e-05,-0.000393852883862067,1.241522503026e-05,-6.65133830102249e-05,-3.10970718473413e-05,-2.74904783204022e-05,1.55833532957672e-05,3.81469132699763e-05,0.000148442104055846,0.00034924667698899,1.98590555458011e-05,-2.57497253919325e-05,0.000375579171066676,-1.15959004727273e-05,9.93323068589902e-05,2.0467961396875e-05,-8.24225665763123e-06,7.02107751369141e-05,0.000123707143145248,-7.36906083602662e-05,6.21601416161965e-05,4.18733513489755e-05,1.30653618430898e-05,0.00023482996384061,-0.000167186606796044,0.000196521027236329,4.65737659736121e-05,-5.12039849809298e-06,-5.42617537089285e-05,-2.2105353263413e-05,-0.000201376562832145,-1.7091781562506e-05,-0.000623747178974732,-6.66255284098582e-06,1.86193093325571e-05,5.7699000644007e-06,2.10697272287064e-05,-1.23904191751123e-05
19:8636422:C:T,-0.00284236269193805,-0.00302803584480227,-0.000672994544747674,-0.000723412395217338,0.000157901074948619,-4.6920991482402e-05,-0.000115040027329094,-0.00558457852543537,0.000322434897071844,0.00028263767481107,-0.000160249785077227,-0.00466924053892992,0.000239047718872065,-2.2426365253736e-06,-2.30333161574947e-05,0.000944642324497202,-0.000334674980911664,-0.00435884419770094,-0.000685020385848389,-0.00198430860361842,-0.000279625359834945,-0.000241745439506502,0.000131647670801982,0.000318319523473498,-0.00526434528798703,-0.00832090471412616,0.000157901074948619,-0.000223493487785831,-0.00195139208368467,-0.00556672992609286,0.000235017818167371,0.000164717443051465,-0.000654760298901103,0.00058643823044946,-7.36906083602662e-05,0.0559847608366546,0.000519308245120698,-0.0043674505109772,0.000103926212367433,-0.00121747708691977,0.000111946742266333,0.000438157920198634,0.000390545130202646,-5.5081668918433e-05,-0.000475864945146398,-0.000395708303575049,-0.000444278869417225,-0.000148184484201508,4.39377897336612e-05,-0.00065587567381975,-0.000970809505428605,-0.00465132093571796,0.000171450355814784,-0.000115040027329094
19:8636977:G:A,-0.00299632074897538,-0.00194737857563521,0.000532962182859364,-0.000572174997762076,-0.000288474414822382,2.31675407729171e-05,-0.0054535697776954,-0.00141332852677944,-0.000405695023935948,-0.000281437788046013,-0.00145126840100307,-0.00367788604859598,-0.000228144729757851,-2.62285525769457e-05,1.13887673389712e-05,-0.00530505992753483,0.000196809544577903,-0.00241030801267605,-0.00109655011873233,-0.00063411369839983,0.000216346618693741,0.000196368484513876,-0.000117932805416388,0.000334319829071283,-0.00201947642171785,-0.000847874242707825,-0.00243546216611534,0.000186710902202236,-0.00762726866267904,7.88485572122966e-05,-0.00578521602953153,-0.000163426702321168,4.37215140722813e-05,-0.000548228610881552,6.21601416161965e-05,0.000519308245120698,0.0609359306620654,-0.000339965361296102,-0.000277019423338132,-0.00112161360737417,-0.00162885447629257,-0.00617036475074695,-0.000359134837813357,2.71839486849501e-05,0.000385880681388784,-0.00103262693573924,-0.00493798811360424,0.000124397358351125,-4.82259795857587e-05,3.53567005522137e-05,-0.000154411967403512,-4.82259795857587e-05,-0.000142744404975303,8.31391429603201e-05
19:8637832:C:T,-0.00166914423207132,-0.00320999385356657,0.000343371282739646,-0.00334752047990428,-0.000379751927461314,-0.000121682263587886,5.73264801664308e-05,-0.000735074670112468,0.000287937135053262,-0.0011029930828883,-0.00141541878730322,-0.00135817427164353,-0.000155698887121858,-0.00015435311512757,-0.000130595271153666,0.000152357477313902,-0.00162348319084327,-0.00328822702780052,-0.000694117967300123,-0.00169835045625799,0.000145271115974843,-0.00178513875090047,-8.02697202235692e-05,-0.000203506726579761,9.2060620787926e-05,-0.00525812335576159,-0.00010782950970345,0.000124231026418897,-0.00407654331470875,-0.00200700782233021,-0.00124141432056479,-0.000110203483428606,-0.000192704732299376,-0.000732098173844342,4.18733513489755e-05,-0.0043674505109772,-0.000339965361296102,0.0649334106834592,-7.03170281255439e-05,-0.00200724895132876,-0.00138374855018064,-0.00174119805500395,-0.000171332465428442,-0.0015921508836092,0.000252094375381873,-0.00199281032133047,-0.000511534037801464,8.32869639912914e-05,-0.00339625744252103,-0.00011247392306668,-0.00412824691709446,-0.00132726740293165,-0.00215107270799564,-0.00434072655945617
19:8638087:C:T,-0.00119912554974899,-0.00164810945392535,0.000106832595291095,2.41870667165855e-05,-3.24889382410376e-05,6.18140114383436e-06,1.8486480030333e-05,-0.00153688360976911,-6.88296598445604e-05,-5.8232368073341e-05,0.000257154980821461,-0.00386703792101706,-4.76236352948689e-05,-3.33838332533531e-06,3.04404098727673e-06,0.000238505628646912,-0.00574665311289468,-0.00128472755575526,-8.6982584429407e-05,-0.00202680554691348,4.59046588838774e-05,4.10502918013478e-05,-2.48443839110379e-05,-0.00228371367134272,-0.00169560563647586,-0.00321877912267166,-0.00120152333676948,3.86929290598914e-05,-0.000431821357397943,1.73805530723214e-05,1.56015123513598e-05,-0.00113739304564753,1.16294134420158e-05,-0.000119971334324731,1.30653618430898e-05,0.000103926212367433,-0.000277019423338132,-7.03170281255439e-05,0.0368182153710261,-6.14863634940122e-06,-0.00143651252465204,-4.47197253254927e-05,-7.72719882666806e-05,7.24865562684585e-06,7.84794620107832e-05,3.28459265155345e-05,-0.000240527438083227,-0.000714199214006506,-9.39372846175957e-06,-0.00170870849182148,-3.06824729392474e-05,-0.00345078439603252,-3.42572729321589e-05,-0.0020573999935305
19:8638827:C:T,-0.00360566065177448,-0.00363773881547624,0.000523180866811579,-1.23290991931313e-05,-0.00126356373632852,-6.60323207233304e-05,-0.000173281767824385,-0.00322049720975714,-0.00603561989765034,-0.000337073084802242,-0.00123672420882315,-0.00259717954296912,0.000294975447300949,-0.000240903699093131,-0.00260197615603097,-0.00583380380200804,-6.71562482050803e-05,-0.00042099830361586,-0.000766816974711926,-0.000480455322098727,-0.000518188532277364,-0.000917393294656677,0.000166495907543585,-0.000670698589383179,-0.000512959266748325,-0.00760661185908695,-0.00126356373632852,0.000367454025152369,0.00115773900963845,-0.000144684690241093,-0.00302318603686036,-0.00128449256182428,-0.00178431650960853,-7.72661049017742e-05,0.00023482996384061,-0.00121747708691977,-0.00112161360737417,-0.00200724895132876,-6.14863634940122e-06,0.0757363842635663,5.35502931118259e-05,-0.00272690448822122,-0.000228600757167463,-7.77130531499637e-05,-0.00264475792454544,-0.000126825949073428,-0.00347214695392806,0.00014607337277095,-0.00570561768273681,-0.000320200817325755,-0.000316408998292772,-0.00715004308137335,-0.00100074764042812,-0.000157055498519298
19:8639093:C:T,-0.0050410431541863,-0.00192963309856875,-9.57862505410745e-05,-0.00188283765405828,-0.00694024267547988,-0.00224000061364293,-2.09041822323286e-05,-0.000416285456775078,-0.0017390016995007,-9.19503791507736e-05,-0.00549596826677057,-0.00785796479506295,-7.36876384292984e-05,-5.11681802706221e-06,-0.00210366308771892,-0.00338710654060792,-0.00402524258791015,-0.000218045537383915,-0.0038282138524961,-0.000236906706094331,-0.00110203053913605,5.30869604871143e-05,8.52367968189327e-05,-0.000700534896781235,-0.00513909821568337,-0.000141403388468575,-0.000694655820158374,5.03382176564315e-05,-0.00592546983743469,-0.00193441642130399,-0.00121180164428969,-5.05532131720443e-05,1.57596047971609e-05,-0.000204939010764349,-0.000167186606796044,0.000111946742266333,-0.00162885447629257,-0.00138374855018064,-0.00143651252465204,5.35502931118259e-05,0.0918001956052925,-0.00186158504587786,-0.000124640974356716,-0.00221832974531821,9.18596205918831e-05,4.32316483820472e-05,-0.00507742205718431,3.4774734270826e-05,-0.00018480300732282,-0.00190070231832884,-0.00930977727205651,-1.36718508416678e-05,-0.000337706599673915,-0.00196053521296324
19:8640516:C:T,-0.00115436531665214,-0.023720037852764,-0.00440988409618681,-0.000976536697913311,-0.0045009341249127,-0.00219503630484219,3.85359517132144e-05,-0.0128478991232752,-0.00716518470164473,-0.00189328371872488,-0.0100190067440837,-0.0018597424126896,-0.00214986004444206,-0.00144590840400838,-0.00494327669183203,-0.00045225387507708,-0.00279439803203463,-0.00177962452499258,-0.0132791691628729,-0.00173932554750778,-0.000777881842861206,-0.00130051288953581,-0.000533272498528525,-0.00265543068987473,3.96967245301916e-05,-0.0148931912298806,-0.00537861009388596,0.000567452254464307,-0.00803751785176399,-0.000772125334618678,1.41749510715883e-05,-0.00112000690739045,-0.000257551455346672,-0.000267992624713997,0.000196521027236329,0.000438157920198634,-0.00617036475074695,-0.00174119805500395,-4.47197253254927e-05,-0.00272690448822122,-0.00186158504587786,0.179125416033406,5.10673381528548e-05,-0.00240163100999347,0.00122370949395023,-0.0061038739665662,-0.0118115136640862,-0.000925243496786798,-0.00327349782216846,-0.00282939319079301,-0.00315078163927396,-0.00225139360325155,-0.00017525957584219,-0.000907550865928641
19:8641238:C:T,-0.000916210826014563,-0.000426287787739454,0.000401286755349339,8.14400558963868e-05,-0.0001178104065227,1.88329221000316e-05,6.3513370890611e-05,-0.00127856427231876,-0.000245967670716496,0.000800390846785071,-0.000883899779581476,0.000721231622633489,0.000126189498685925,-1.71101032666598e-05,9.25845221999566e-06,0.000338365738648427,0.000151359507825966,-0.00474560010054237,-0.00136116039591805,0.000336820202731403,0.000163647966780367,-0.00748765800206552,-8.78070194483271e-05,-0.000218886395233042,-0.00202049470562393,-0.00502381826759013,-0.0001178104065227,0.000139967245851302,-6.06881099933787e-05,-0.000972105675124624,-6.42130499652893e-05,-0.000120299352296627,-0.000509276287336213,-0.000406793109213766,4.65737659736121e-05,0.000390545130202646,-0.000359134837813357,-0.000171332465428442,-7.72719882666806e-05,-0.000228600757167463,-0.000124640974356716,5.10673381528548e-05,0.0261432279670641,2.20974504721028e-05,0.000289983324349485,0.000115288773324451,-0.00214648605470558,9.32295561986152e-05,-3.51352627285806e-05,2.87398689273743e-05,-0.00021361149895327,-3.51352627285806e-05,-0.000122759906771464,6.3513370890611e-05
19:8641357:A:G,-3.43261912778559e-05,-0.00297639126811067,-5.72693396883039e-05,-1.01799920280143e-05,-0.00168869339759681,-2.55038031049537e-06,-7.53871917336113e-06,-0.000539544808725978,-0.00263547379548967,1.76410536303351e-05,-0.00869991724267294,-0.00189446541867611,-0.00332536183250198,-0.00224007824088979,-1.24196394946097e-06,-0.00426889512363626,-1.96803315803962e-05,-0.00387188766882929,-0.000555185994871366,-0.00167839119674884,-2.02768427026712e-05,-1.77176378839405e-05,8.52470748746725e-06,1.88666829377127e-05,-0.00083343959585136,-0.00263533693709483,-0.00168869339759681,-1.65036780046535e-05,-0.000951597717843811,-7.03805163926319e-06,-0.00506608426571553,-0.00162327601788803,-0.00223961410005913,2.93425171120631e-05,-5.12039849809298e-06,-5.5081668918433e-05,2.71839486849501e-05,-0.0015921508836092,7.24865562684585e-06,-7.77130531499637e-05,-0.00221832974531821,-0.00240163100999347,2.20974504721028e-05,0.063729195621602,-3.82331328196983e-05,-1.39546661745982e-05,-0.000478098101051039,-1.06194351445765e-05,3.3058549675502e-06,-0.00225272354213502,-0.0025139294831078,3.3058549675502e-06,1.12823500186821e-05,-0.0026137584285495
19:8642956:C:A,-0.00437242391485526,-0.00289144444047551,0.000507938764890525,-0.000113632443651035,-0.00116312805183494,-3.25710102719867e-05,-8.30409303915758e-05,-0.00290276881299523,-0.000979146162189082,0.000212470802162024,-0.00118862613219761,-0.00650037350606159,0.000178664699247655,1.69883024003781e-06,-1.59923408853402e-05,-0.0045843470267446,-0.000206958014885572,-0.000898559396555143,-0.0116850270891309,-0.000788733614684567,0.000113244393643797,-0.0001772826948363,9.76020113272469e-05,0.000236747005533999,-0.00119167170622614,0.000395470595710101,-0.00116312805183671,0.00391390801885727,-0.00437436312788986,-7.7145383598598e-05,0.000821265403669891,-0.00130662101183088,-6.15953618927634e-05,0.00043570944158855,-5.42617537089285e-05,-0.000475864945146398,0.000385880681388784,0.000252094375381873,7.84794620107832e-05,-0.00264475792454544,9.18596205918831e-05,0.00122370949395023,0.000289983324349485,-3.82331328196983e-05,0.0425076420878839,-0.000146067440056186,-0.00169022254370876,-0.000109099423322156,3.36453839233641e-05,-4.97688356384529e-05,0.000109696762429223,3.36453839233641e-05,0.00012854061255485,-8.30409303915758e-05
19:45653040:G:A,-0.00257642689524218,-0.00177217279184383,-0.00063730325680833,-4.42039371648661e-05,-0.00213234077313196,-1.18817732941423e-05,-0.000120145999787269,-0.0066141020237156,0.000100520422742889,-0.00518720668032469,-0.00127216419816634,-0.003821856136077,7.27327901861585e-05,-0.00272075887566903,-5.82489661304919e-06,-0.00268285805653612,-0.00298515854289505,-0.000970893408996254,-0.00125635934434065,-0.00331980453100389,-0.00332857137609999,-7.2660648076095e-05,3.9561491255391e-05,9.49688475442301e-05,-6.49061169806231e-05,-0.00311187723361339,-0.00481840816633827,-6.77724392286194e-05,-0.0127962722490409,-3.05945586243084e-05,-0.0113608371743839,5.12938114107797e-05,-2.25305297139045e-05,0.000170416098618453,-2.2105353263413e-05,-0.000395708303575049,-0.00103262693573924,-0.00199281032133047,3.28459265155345e-05,-0.000126825949073428,4.32316483820472e-05,-0.0061038739665662,0.000115288773324451,-1.39546661745982e-05,-0.000146067440056186,0.0881078666358404,-0.000918842699500821,-4.46935481557276e-05,1.4460380717729e-05,-1.81845992948126e-05,-0.00222673722183675,1.4460380717729e-05,-0.00197653615979387,-3.27874291849994e-05
19:45657486:C:T,-0.00341397213746264,-0.00449590730609994,-0.00198341406310876,-0.000645377673014202,-0.00209273530565923,-0.0057389441095177,-0.000941505484089333,-0.00930982602599828,-0.0165360805886823,-0.00527010926229154,-0.0018249848703058,-0.00582922773327121,-0.000116259712900302,-0.00973996535454003,-0.000994389192841005,-0.00699703897063264,-0.00436179533511849,-0.000115098518012502,-0.00311931539004906,-0.00418588294273858,-0.00236465165180144,7.7080474577329e-05,1.17968454373951e-05,-0.00651900060626343,-0.000657182124604638,-0.0122337112232467,-0.00290490737964921,-0.000179110703087737,-0.00431459777374865,-9.17289617330397e-06,-0.0110854053282576,-0.00142364124088612,-7.62375369394164e-05,-0.00540063756499354,-0.000201376562832145,-0.000444278869417225,-0.00493798811360424,-0.000511534037801464,-0.000240527438083227,-0.00347214695392806,-0.00507742205718431,-0.0118115136640862,-0.00214648605470558,-0.000478098101051039,-0.00169022254370876,-0.000918842699500821,0.174324800491358,-0.000431250554299822,-0.000249477317955105,-0.000910185507190242,-0.00286398519319331,-0.000249477317953328,-3.08067203311779e-05,-0.00286797209856093
19:45658980:C:T,-0.000321506906193925,-0.00164181346827963,-0.000153103007749955,-3.36508566851634e-05,3.94660210885078e-05,4.74420944307496e-07,-2.51265429946912e-05,9.50377218762455e-05,8.11497094339586e-05,6.9840079361505e-05,-0.000800122345352428,-0.000365057485741005,5.80739983631062e-05,2.59140218794585e-06,-4.44527560539143e-06,-0.000594294184245392,-6.1707014499035e-05,4.44627285407506e-05,-0.000180114874090087,-0.000134771835499592,-6.27588675286006e-05,-5.53164421299712e-05,3.12104189488238e-05,7.63016983151843e-05,0.000133548962994112,0.000748259481452962,3.9466021089396e-05,-5.1724587669888e-05,-0.000291496354898335,-2.3481808076653e-05,-0.000697179861262498,4.07384542366884e-05,5.70375813921942e-05,0.000140521960627638,-1.7091781562506e-05,-0.000148184484201508,0.000124397358351125,8.32869639912914e-05,-0.000714199214006506,0.00014607337277095,3.4774734270826e-05,-0.000925243496786798,9.32295561986152e-05,-1.06194351445765e-05,-0.000109099423322156,-4.46935481557276e-05,-0.000431250554299822,0.00569537641953577,1.14040826559858e-05,-1.38181730120479e-05,3.687520864748e-05,1.14040826559858e-05,4.19959320572261e-05,-2.51265429946912e-05
19:45659277:C:A,-0.00357021217038067,-0.0048589290573684,-0.0014543129936202,1.07660814965271e-05,-1.44609981518329e-05,2.82050184186033e-06,8.21200237233199e-06,-0.00433862964879506,-0.00376578249601689,-2.61843258471117e-05,-0.000505223670054455,-0.00619824359942456,-2.13883399391435e-05,-1.3387950446031e-06,1.39095311180171e-06,-0.00926394249182572,-0.00239092376770866,-0.000163819362762219,-9.89687059904654e-05,-0.00519923835934399,2.0057841096488e-05,1.79349334654688e-05,9.09347022064466e-05,-2.83898267525728e-05,-0.00046673407168818,-0.00632043508847513,-1.44609981518329e-05,1.68999637466527e-05,-0.00155668330660408,7.71484301065328e-06,-0.00146677600218492,-1.48812358506945e-05,-0.00191177919630814,-5.52310396466638e-05,-0.000623747178974732,4.39377897336612e-05,-4.82259795857587e-05,-0.00339625744252103,-9.39372846175957e-06,-0.00570561768273681,-0.00018480300732282,-0.00327349782216846,-3.51352627285806e-05,3.3058549675502e-06,3.36453839233641e-05,1.4460380717729e-05,-0.000249477317955105,1.14040826559858e-05,0.0669701712991229,4.29016242797786e-06,-1.36078648811377e-05,-4.12860833698403e-06,-1.52973346603247e-05,8.21200237233199e-06
19:45659606:G:A,-0.00179970568511401,-0.00422287725355464,-7.4576827122641e-05,-0.00196128764193748,1.39074651137605e-05,-3.33852831513326e-06,-9.82821391737332e-06,-0.00173690231648482,-0.00159498330981478,-0.00162271199795239,-0.000213571671966228,-0.00510624032954077,1.95340593682758e-05,1.19720567415271e-06,-1.6255004089416e-06,-0.000404253731165483,-0.00175655062135949,1.56980356971204e-05,-0.00196551532149236,-0.0013040907527575,-2.64155167508662e-05,-2.30644980909744e-05,1.10867220417532e-05,-0.000892436638231686,-1.92857132415014e-05,-2.31664893153294e-05,-0.0036798286520261,-2.14754659424443e-05,-0.000844579259197786,-9.1726840203421e-06,-0.00238165846457816,-0.00159594452920064,-6.40573820298584e-06,-0.000584358554479358,-6.66255284098582e-06,-0.00065587567381975,3.53567005522137e-05,-0.00011247392306668,-0.00170870849182148,-0.000320200817325755,-0.00190070231832884,-0.00282939319079301,2.87398689273743e-05,-0.00225272354213502,-4.97688356384529e-05,-1.81845992948126e-05,-0.000910185507190242,-1.38181730120479e-05,4.29016242797786e-06,0.0462646439790242,1.31231337476834e-05,4.29016242797786e-06,1.46641472271725e-05,-0.00176198211078038
19:45659938:G:C,-0.00373423899202185,3.96396037585234e-05,0.000147849575456327,3.40476571745185e-05,-4.71853648562615e-05,8.61928667905687e-06,-0.00209820541201289,-0.0035993329082018,-0.000100917625435848,-0.00249196861512768,-0.00122739371177083,-0.00091647719241994,-0.00870309288870974,-5.14387006145256e-06,4.24672475141108e-06,-0.0138704982034459,-0.000361502445848316,-0.00284360679492313,-0.00083033220423534,-0.00425095889842453,6.46671205775107e-05,-0.0033849103346526,-3.58122316992393e-05,-9.13651372789204e-05,-2.96390184209017e-05,-0.00206221536464302,-4.71853648562615e-05,5.47605459617628e-05,-0.0018215163028561,2.46129950625118e-05,-0.0032932305054425,-4.84335773220934e-05,-0.00534511373483237,-0.000176570909667717,1.86193093325571e-05,-0.000970809505428605,-0.000154411967403512,-0.00412824691709446,-3.06824729392474e-05,-0.000316408998292772,-0.00930977727205651,-0.00315078163927396,-0.00021361149895327,-0.0025139294831078,0.000109696762429223,-0.00222673722183675,-0.00286398519319331,3.687520864748e-05,-1.36078648811377e-05,1.31231337476834e-05,0.0903719930200255,-1.36078648811377e-05,-0.00363145301509693,2.61475800025224e-05
19:45660972:A:C,-0.000159933049933336,-0.000578990219221254,4.51089237705204e-05,1.07660814965271e-05,-0.00139689391639308,-7.32714981763749e-05,8.21200237233199e-06,-0.00672482659456364,-3.09770075412885e-05,-2.61843258471117e-05,-8.19836673020546e-05,-0.00619824359942456,-2.13883399382553e-05,-1.3387950446031e-06,-0.00212436232027624,-0.00401153708918578,-6.61353068309722e-05,-0.0014773278438911,-1.05128066989479e-05,3.98316309535574e-05,2.0057841096488e-05,1.79349334654688e-05,-1.110521117198e-05,-2.83898267525728e-05,-0.00192734560308061,6.81254646890395e-05,-1.44609981518329e-05,1.68999637466527e-05,-0.00341543170472658,7.71484301065328e-06,-0.0021746477285971,-1.48812358506945e-05,5.29300079765704e-06,-0.00248613800799635,5.7699000644007e-06,-0.00465132093571796,-4.82259795857587e-05,-0.00132726740293165,-0.00345078439603252,-0.00715004308137335,-1.36718508416678e-05,-0.00225139360325155,-3.51352627285806e-05,3.3058549675502e-06,3.36453839233641e-05,1.4460380717729e-05,-0.000249477317953328,1.14040826559858e-05,-4.12860833698403e-06,4.29016242797786e-06,-1.36078648811377e-05,0.0543756157673583,-1.52973346603247e-05,-0.00242177588262305
19:45662432:G:A,-0.0081402833980011,-7.32895314063953e-05,0.000176302791722094,-0.00299506962487595,-5.24116472035985e-05,9.61867254112292e-06,2.95754322268138e-05,-0.00398343009197877,-0.000110364178597777,-9.33226527379816e-05,-0.00380851929147052,-0.00111836532335108,-7.62964950533629e-05,-0.00306638143537441,4.7330999572992e-06,-0.00524988119016356,-0.00274738913620354,-6.19960892587201e-05,-0.00284547093098642,-0.00244202082238587,-0.00269020425933508,6.65331888098919e-05,-3.98493695099589e-05,-0.000100067079997324,-0.0028807338946697,-0.00122607173905287,-0.00234518387195504,6.27753607496118e-05,-0.00805978164439125,2.78383291414386e-05,-0.00247653751368571,-5.37604202204278e-05,1.81205191349676e-05,-0.000189224040287428,2.10697272287064e-05,0.000171450355814784,-0.000142744404975303,-0.00215107270799564,-3.42572729321589e-05,-0.00100074764042812,-0.000337706599673915,-0.00017525957584219,-0.000122759906771464,1.12823500186821e-05,0.00012854061255485,-0.00197653615979387,-3.08067203311779e-05,4.19959320572261e-05,-1.52973346603247e-05,1.46641472271725e-05,-0.00363145301509693,-1.52973346603247e-05,0.0685825304812351,-0.00280718665510449
19:45663096:G:A,-0.0021537493588708,-0.00355203388446768,-0.000119123014222566,-2.44329776402097e-05,-0.00200548634835851,-0.00180582946972141,-1.8204911899744e-05,-0.00598617247999389,-0.00235715241992107,4.84246618235318e-05,-0.00242206927055655,-0.00232479363965865,-0.0016870403186342,-0.00175854189308389,-0.00277950148599437,-0.00234102605937903,-7.64775468349299e-05,-0.00208090847517006,-0.00511757064704099,-0.00302575625357093,-4.65378594070032e-05,-4.09125606770644e-05,-0.000526226252372197,-0.00122273103995507,-0.00263082781405455,-0.00310064442894475,-0.00244248518890622,-3.82140834513933e-05,-0.00394309674675686,-1.70102532965899e-05,-0.000752363584459737,2.87357713295577e-05,-1.21825660377439e-05,-0.00568444178685024,-1.23904191751123e-05,-0.000115040027329094,8.31391429603201e-05,-0.00434072655945617,-0.0020573999935305,-0.000157055498519298,-0.00196053521296324,-0.000907550865928641,6.3513370890611e-05,-0.0026137584285495,-8.30409303915758e-05,-3.27874291849994e-05,-0.00286797209856093,-2.51265429946912e-05,8.21200237233199e-06,-0.00176198211078038,2.61475800025224e-05,-0.00242177588262305,-0.00280718665510449,0.0839997007459017
