19:5848000:T:C,19:5850346:C:T,19:5850497:C:G,19:5851851:A:G,19:5852599:C:T,19:5852921:G:A,19:5853439:C:T,19:5853523:T:C,19:5853535:A:G,19:5853552:T:A,19:5853563:C:G,19:5854968:G:A,19:5855981:T:C,19:5857069:C:T,19:5857120:C:G,19:5857466:C:T,19:8585167:A:C,19:8586086:C:A,19:8588164:G:A,19:8588193:A:G,19:8588997:C:T,19:8592889:T:C,19:8596457:C:T,19:8597865:C:T,19:8600315:C:G,19:8601959:G:A,19:8603573:A:G,19:8609696:C:G,19:8610681:C:T,19:8614738:A:G,19:8615608:C:T,19:8615920:T:C,19:8615982:C:T,19:8617106:G:A,19:8620823:A:G,19:8620861:C:G,19:8621212:C:T,19:8621494:G:A,19:8621910:C:T,19:8621941:G:A,19:8625106:C:T,19:8626097:A:G,19:8626736:G:A,19:8627047:C:T,19:8627125:C:T,19:8627569:C:T,19:8628292:A:G,19:8630242:C:T,19:8630873:G:C,19:8634279:C:G,19:8634947:C:T,19:8636422:C:T,19:8636977:G:A,19:8637832:C:T,19:8638087:C:T,19:8638827:C:T,19:8639093:C:T,19:8640516:C:T,19:8641238:C:T,19:8641357:A:G,19:8642956:C:A
19:5848000:T:C,0.258257931630533,0.000169637156879787,-0.00472718839236563,-0.00233538174163606,-0.00244274762302421,-0.00209006857035288,-0.00289676387861748,-0.00596143854698195,-0.0029566731689985,-0.00367750957033053,-0.00709372607538139,-0.0143940265664284,-6.33526518152294e-05,-0.00305533619582743,-0.00513530976327559,4.51117155835234e-05,-0.00515676592775094,-0.0131470055616401,-0.00215111144550484,-0.00724971282450948,-0.00761097749575868,-0.00242015177292298,-0.000148040451082743,-0.00432857361699357,-0.00684980641835775,-0.000488047863096419,-0.00285050557772459,-0.0120818081186571,-1.39155421248205e-05,-0.000311013173257102,-0.0110868325276652,-0.00977126307002951,-0.00874905268296633,-0.000223917833376497,-0.00669646957951286,-0.00285982641709159,-0.000194461953292979,-0.00388828348082892,-0.000106697008980028,-0.0072937666316939,-0.00230716842404988,-0.0083868620610752,-0.00752952096414994,0.000427337452792109,-0.0188801755307386,-0.00286337635231959,-0.000697851432540197,-0.00418086591571853,-0.00748592031182138,-0.00042985688493502,-0.000532388393375882,-0.000810311293552246,-0.00105291860214862,-0.00165870030988824,-0.0012874386645656,-0.0156506025306173,-0.00871643692205604,-0.000979620632028944,-0.00299553399774322,-0.000244313033798349,0.000297374021188901
19:5850346:C:T,0.000169637156879787,0.0705245587615044,3.19134092405804e-05,0.000215709481725668,6.11607456644236e-05,-0.00101289566156648,-0.00166972522703901,-0.00409188492304491,2.38269465748786e-05,-4.84325002112485e-05,0.000288431124680244,-0.00113081199963094,2.9645908089293e-05,-0.000514056344993463,4.84968515177542e-05,-2.17763227876588e-05,-0.00122614598471493,-0.00132283344782103,0.000252232219331461,-0.00365677108585061,-0.000760378014923901,-0.00126564741595292,-0.00347187201581711,-0.00416112111449429,-0.00578218390449514,-0.000130950127298135,-0.0010869569717169,-0.000729873581662766,-0.0001069785401695,-9.19809811605887e-06,6.39890507692087e-06,3.35244266382873e-05,-0.00130675342088082,-0.00428338811228102,-0.00104281917505133,0.000215446362764382,-0.00164576724683307,9.39211698316456e-05,-5.58811676780735e-05,-0.000139687764654894,-0.00117430987370781,-0.00500482538580016,-0.00076037801492479,8.87336217099133e-05,-0.00816562850811042,3.88649278972863e-05,-0.0055836464075103,-0.00466919680046018,2.45332611976679e-05,0.000103784859199152,2.9645908089293e-05,0.000245291926078472,0.000170200250346753,-0.000157803277526014,-4.84325002112485e-05,-4.82563653418921e-05,-0.000995642665087892,-0.00544037997744162,-0.000170867719636369,1.52638462678212e-05,0.000182935595138822
19:5850497:C:G,-0.00472718839236563,3.19134092405804e-05,0.0526621765083996,-7.13425133724854e-05,-2.09020793144887e-05,8.27129049252306e-06,-0.00534693753508186,-0.00141162641810855,-0.00544438407730485,1.41281955743366e-05,-0.000106466864033372,-0.00140468610972899,-9.26729003491999e-06,-0.00216458935613772,-1.62030124881696e-05,6.249687935167e-06,-0.00491005414173529,-0.00141650885004552,-8.44831442234906e-05,-1.80468915900178e-05,2.14321368208203e-05,-4.75981272707315e-06,-1.35221820904974e-05,-0.0013254353717409,4.38254658563508e-05,3.76910538149033e-05,-0.00183370321769694,-0.00163144999187637,3.13258785569204e-05,1.63949465026292e-06,-2.33682540695668e-06,-0.00446355137870125,-0.00573756713333129,2.43596683384695e-05,-0.00552870537703942,-7.37247956656972e-05,-0.00104442459661325,-3.01106211590962e-05,1.68485690217324e-05,4.09631624984641e-05,-0.00131035325414164,-0.0011762486099105,2.14321368208203e-05,0.00059480438752324,-0.00108382411484964,-1.26504072346378e-05,0.000104569235562124,2.20877740915171e-05,-9.00291225214289e-06,7.46579005257431e-05,-9.26729003491999e-06,-8.17610902661414e-05,6.62627353396061e-05,4.48994865349661e-05,1.41281955743366e-05,-0.00155535671477303,1.93841782802906e-05,0.000200523239853645,4.98866549971666e-05,-5.58744881473672e-06,-6.74306244121681e-05
19:5851851:A:G,-0.00233538174163606,0.000215709481725668,-7.13425133724854e-05,0.0913599736914472,-0.000670842319730802,-0.00194481136754909,-0.000281395272692109,-0.00101447422513434,-0.00139613201678301,9.1973729517747e-05,-0.00121984437727551,0.000103994106379623,-6.44631284769659e-05,-0.00180931139807594,-0.0001219207662011,3.91523996210452e-05,-0.0129763545659394,5.03288154574122e-05,-0.00719442528087999,-0.000775999328536336,-0.00306478611622119,-0.000746655608205415,-9.97092481416217e-05,-0.00928124399612784,-0.00103279199585682,0.000249483337172229,-0.00183097423213852,-0.00358757178703506,0.000210440373879628,-7.54932365509831e-08,-1.96018349996052e-05,-0.00409663857292042,-0.000668874212010451,-0.00231003415773223,2.50481393804236e-05,-0.00356293709937905,-0.000243539776493051,-0.000101434332210992,0.000115476262386949,0.000279508235752068,-0.00223396281982602,-0.00166337608601186,0.000139721465989062,-0.000195555831116856,-0.00488389945855339,-9.24870627070362e-05,-0.000446250494325895,-0.00400742887121996,-0.000715918062115684,-0.00417217176564311,-6.44631284769659e-05,-0.000567143202963472,-0.00399020125839478,0.00029559371581378,-0.00136562076829705,-0.000681288064826369,-0.0003499328846015,-0.00031189605915749,0.000342589894611223,-0.00483767096359156,-0.000416160102313157
19:5852599:C:T,-0.00244274762302421,6.11607456644236e-05,-2.09020793144887e-05,-0.000670842319730802,0.128457911550003,1.58072911542462e-05,-0.00116962796125986,-0.00733898675476485,-0.00571354339711228,2.77504427659281e-05,-0.00232061399597772,-0.00146363173755892,-1.91007409684474e-05,-0.00130736718434843,-0.00254546714935344,-0.00202032198286872,-0.00150631328982653,-0.000583992497491082,-0.00278543068597248,-0.0018393292004335,-0.00616259677406017,-0.00187798988258958,-0.00163401313314804,-0.0041418526911734,-0.00112187045418644,-0.00141743484009371,-0.00533582250769982,-0.00290605430672786,6.00497595799609e-05,-0.00261780303990022,-0.00251636131988686,-0.00578970568381809,-0.001140644593427,-0.0114605304086348,-0.00244664089516533,-0.000208116578576778,-0.00290679939597194,-6.41880789657989e-05,-0.00024928997110063,-0.000931246902749372,-0.00390172646172182,-0.00268954432813118,-0.00249848086238202,-5.9770163326256e-05,-0.000401864001100982,-2.64723994893856e-05,-0.00178272125736134,4.28980561073544e-05,-0.00232349838833557,-0.00222135073631424,-1.91007409684474e-05,-0.00527175068286478,-0.000649090192547774,8.38385722934376e-05,-0.00178260490922355,-0.00131701437985488,-0.00536570701781791,-0.00231755303583681,9.27063899460734e-05,-0.00185932879249862,-0.00567736439985733
19:5852921:G:A,-0.00209006857035288,-0.00101289566156648,8.27129049252306e-06,-0.00194481136754909,1.58072911542462e-05,0.12807971742474,-0.00864379092158707,-0.00682965970178007,-1.97094499965189e-05,-1.33978489760267e-05,-0.00339917973728898,-0.00630699561672632,7.65818123582562e-06,-0.00196470190598053,-0.00200286327756771,-5.76526205442462e-06,-0.00510470685496234,-0.000223162050204451,4.48080968737941e-05,-0.000745608037921563,-0.00634884658241663,-0.00444124741533791,1.07480030910878e-05,-0.0039571858586438,-0.00888809578801553,-0.00306288020551548,-0.00157452707847394,-0.00428800236533622,-3.18869930238108e-05,-1.89938761607777e-06,-0.00238905831501324,-0.000423070726446095,2.37961576310397e-05,-0.00886567403664351,-0.000676504497906016,-0.000296691703959517,2.45575800077447e-05,-0.00334952034454794,-1.59040887908191e-05,-0.005149825123965,-0.00385566626754752,-0.00322839395629826,-0.00144139054919901,2.11027862633273e-05,-0.00301694534660868,1.01252707791488e-05,-0.00247712344183304,-0.00498073716080594,-0.00194954107194611,-0.000981028745806967,7.65818123582562e-06,-0.000759651012769424,-0.00108802779063932,-0.000392053777727774,-0.0029992678171622,-0.00143184652677242,-0.00244505208985668,-0.00312641648378076,-5.46981943010394e-05,4.40850072713772e-06,3.7318244989315e-05
19:5853439:C:T,-0.00289676387861748,-0.00166972522703901,-0.00534693753508186,-0.000281395272692109,-0.00116962796125986,-0.00864379092158707,0.200977022444155,-0.00540918294143111,-0.00121159992592546,-0.00285843926942242,-0.00468862622417632,-0.00813951256794754,1.79741401682421e-05,-0.0129182799247021,-4.34865276073282e-05,-1.32444500300366e-05,-0.00673203849378901,-0.00284090051930663,-0.000747216006335982,-0.00257145201191822,-0.0155776622797426,-0.00651353701935431,-0.00284203570730046,-0.00252258680923312,-0.00164003404108204,-0.00308949080031251,-0.0022556802536009,-0.00248074935030651,-0.00106415678784977,-0.00149774827115046,-0.0117580073775656,-0.00827479299377298,-0.00454952216368731,-6.71312742648311e-05,-0.00572435058634291,-0.00468442748341547,-0.00162429176694001,5.15748804348348e-05,0.000232114138294826,-0.00275187024176748,-0.000294854028445979,-0.00354488989224278,-0.0046013384393131,-0.000430690055071459,-0.0025638208062726,-0.00010167292323171,-0.00299015516377743,-0.000987511741259439,-0.00180297276827535,-0.000763781937553887,1.12240527760932e-05,-0.00192633748820725,-0.00323438624625894,-0.00416107351843475,-0.00332390757858647,-0.00468358446145434,-0.00515335610542866,-0.00314141230449616,-0.000201937959306342,-0.00776673871878408,-0.00251519265286948
19:5853523:T:C,-0.00596143854698195,-0.00409188492304491,-0.00141162641810855,-0.00101447422513434,-0.00733898675476485,-0.00682965970178007,-0.00540918294143111,0.257904077948598,-0.00609671006407941,2.29108659741684e-05,-0.00642073169966295,-0.00353535063207078,4.75822133401138e-05,-0.0102248859155694,-0.00181013700694388,-0.000921403168112178,-0.0129229417136654,-0.003519325812122,-0.00641836890856773,-0.00184840633617522,-0.00152283320804392,-0.00245084250752381,-0.00172752104542351,-0.00502809143057181,-0.00479147799987123,-0.00153924944815476,-0.00168615287022478,-0.00769786687982998,-0.00317386070946934,-0.0118595928650325,-0.00547299741312912,-0.00549885941991457,-0.000357942606986406,-0.000923739245060062,-0.00665856181135283,-0.00137212242118601,-0.00944379946626572,-0.00553546610313393,-3.83886668249289e-05,-0.00309246937288332,-0.000220154271283413,-0.0104653568946862,-0.000768726392657015,-7.81571750323451e-05,-0.00246287898589204,-0.00496982301349469,-0.00509645707361761,-0.00110850680191277,-0.013588744711361,-0.00250935910290018,-2.40045465913497e-05,-0.00264474750529864,-0.00973506460045925,-0.00376995258916724,-0.00616725030884879,-0.00287954871857199,-0.00596749792453632,-0.00702498430139942,-0.00218831034929678,-0.00161622794574345,-0.00904146755606483
19:5853535:A:G,-0.0029566731689985,2.38269465748786e-05,-0.00544438407730485,-0.00139613201678301,-0.00571354339711228,-1.97094499965189e-05,-0.00121159992592546,-0.00609671006407941,0.172518225892042,-0.000122241312713989,-0.00197288389008232,-0.00758875119615121,5.6282378374739e-05,-0.0129350762351756,-0.000896497600980872,-0.00230883610077282,-0.00193116282160144,-0.00255306453299253,-0.00428262791542178,-0.00299296907939617,-0.00161690435632877,-0.000566349276284406,-0.00210960530544479,-0.00511245973564911,-0.00773951599101874,-0.000468796930345405,-0.00158018576347008,-0.00492245417049686,-0.00257071258878661,-0.00423222061212236,-0.0023120648722621,-0.00775115073590493,-0.00219723412314377,-0.00545494554785009,-7.03242862072351e-05,-0.00399973988801694,-0.000141985450556881,-0.00427205977445499,-0.000161129964614481,-0.000869295764302613,-0.000599766371533139,-0.00466184304445383,-0.00222075827743762,3.47804646922967e-05,-0.00391724573088181,-0.00036077370306753,-0.00414616542643431,-0.00440847802864486,-0.0112815381243294,-0.00119974408023804,-1.69557239884099e-05,-0.00201379232448673,-0.00279122804843102,-0.00208491303479708,-0.00179332211961292,-0.00455358198416755,-0.00136846807585789,-0.00384262161087578,-0.00160951706807388,-0.000538335338636564,-0.000652069642985253
19:5853552:T:A,-0.00367750957033053,-4.84325002112485e-05,1.41281955743366e-05,9.1973729517747e-05,2.77504427659281e-05,-1.33978489760267e-05,-0.00285843926942242,2.29108659741684e-05,-0.000122241312713989,0.103750111625442,-0.00240825514150345,-0.000584160368111597,1.30653618430898e-05,-0.00573884886114229,2.18719624323072e-05,-9.39372846353592e-06,-0.00896778078142013,-0.00665517434120577,0.000106832595291095,2.41870667165855e-05,-3.24889382410376e-05,-0.0017548201859805,-0.00253101677408463,-0.00123054982092263,-0.00262384551090911,-5.8232368073341e-05,-0.00691827201722539,-0.00721709347039923,-4.76236352948689e-05,-0.00277632192813915,3.04404098727673e-06,-0.00463702738759775,-0.00248620061229854,-3.81194277494501e-05,-0.0119184934814447,-0.000674411074930603,4.59046588838774e-05,4.10502918013478e-05,-2.48443839110379e-05,-0.00126111969963283,-0.00373862319179885,-0.00289650072207426,-3.24889382410376e-05,3.86929290598914e-05,-0.00351199815601611,1.73805530723214e-05,-0.00373857688221957,-0.00113739304564753,-0.000126934064022421,-0.000119971334324731,1.30653618430898e-05,0.000103926212367433,-0.000277019423338132,-7.03170281255439e-05,-2.11877264923999e-05,-0.0023545465117234,-0.00315515713970882,-0.00410743147637138,-7.72719882666806e-05,-0.00173484328687667,7.84794620107832e-05
19:5853563:C:G,-0.00709372607538139,0.000288431124680244,-0.000106466864033372,-0.00121984437727551,-0.00232061399597772,-0.00339917973728898,-0.00468862622417632,-0.00642073169966295,-0.00197288389008232,-0.00240825514150345,0.168823949487053,-0.00503448798167394,-9.51258148820244e-05,-0.00533238465640462,-0.00145322412863003,5.3016513322568e-05,-0.00306953934584353,-0.0117319724945135,-0.000391466093359938,-0.000172108638313517,-0.00127765267381186,-0.000987031503574265,-0.0059849110703718,-0.00667248444825619,-0.000461493321196826,-0.0019262055730227,-0.00358442651815549,-0.00661305314720773,-0.00337798889194918,-0.00139620149917263,-0.00482286277394461,-0.00015810699937413,-0.00125096963006044,-6.19789529716641e-05,-0.00594823756279927,-0.00217938546717011,-0.00283020297517655,-0.000327836059694775,0.000160011181056241,-0.000308626080575358,-0.000598885491210233,-0.00186021749537257,-0.00452832256815849,-0.000299794546655185,-0.00503007128564636,-0.000152265030538778,-0.00543480571405253,-0.00263057330044969,-0.0102126481063589,-0.00272105561543423,0.000190210878143304,0.000170225745548258,-0.00103557202999127,-0.00197025246288973,-0.00324523518441211,-0.00318199658917173,-0.00404919932736547,-0.00553264151532229,-0.00288873872415252,-0.00506336993917422,-0.00216990769595871
19:5854968:G:A,-0.0143940265664284,-0.00113081199963094,-0.00140468610972899,0.000103994106379623,-0.00146363173755892,-0.00630699561672632,-0.00813951256794754,-0.00353535063207078,-0.00758875119615121,-0.000584160368111597,-0.00503448798167394,0.2629754181084,6.97576873402994e-05,-0.00747495032672907,-0.00751505779414785,0.000292694995532194,-0.00379826599392263,-0.00462623050713207,-0.00423869777553687,2.84349818802099e-07,-0.00266784544596899,-0.0114007244276646,-0.00514913981979515,-0.00455901684834092,-0.00145859563129047,-0.00620891203607998,-0.00957869591853777,-0.00184975504778384,-0.0014882646112131,-0.00147521995596644,-0.00307255561427322,-0.014519059182911,-0.000815255535476567,-0.00235571132282697,-0.00543976271002622,-0.00305054914085012,-0.00542593650146772,-0.00535510115980387,0.000321784142241377,-0.00613355042548402,-0.00581835437574707,-0.00267148053130795,-0.000813180336863173,-0.000371412967928642,-0.00578856980677367,-0.00488652755350483,-0.0074509958478135,-0.00452041248496293,-0.00319347599938125,-0.0063856911943736,-0.000520716938779309,-0.00481716999519222,-0.00613117977079991,-0.00157105886487807,-0.0065009913766545,-0.0115607138316145,-0.0018684452519131,-0.00767864925012018,-0.00200234587962278,-0.00287272030961194,-0.00710057231261096
19:5855981:T:C,-6.33526518152294e-05,2.9645908089293e-05,-9.26729003491999e-06,-6.44631284769659e-05,-1.91007409684474e-05,7.65818123582562e-06,1.79741401682421e-05,4.75822133401138e-05,5.6282378374739e-05,1.30653618430898e-05,-9.51258148820244e-05,6.97576873402994e-05,0.00245227403002346,-0.00043144174981169,-1.48312311782917e-05,5.76990006351252e-06,1.79485126610146e-05,-0.000800906596625239,-7.60873135643436e-05,-1.6507892884654e-05,1.9859055544913e-05,-3.67146961899323e-06,-1.23904191751123e-05,0.000135895614586268,4.08631275297111e-05,3.50773622130873e-05,-0.000381631982825148,-0.000175463658191433,2.90971600120926e-05,1.53015108761423e-06,-2.14350637772753e-06,-0.000216465011912526,-3.03362707194665e-05,2.2606279078019e-05,-7.40751167365161e-05,-6.65133830102249e-05,-3.10970718473413e-05,-2.74904783204022e-05,1.55833532957672e-05,3.81469132699763e-05,0.000148442104055846,0.000390503927508057,1.98590555458011e-05,-2.57497253919325e-05,-0.000267704623826859,-1.15959004727273e-05,-0.000337044170128031,2.0467961396875e-05,5.67709610947986e-05,7.02107751369141e-05,-8.50887695591496e-06,-7.36906083602662e-05,6.21601416161965e-05,4.18733513489755e-05,1.30653618430898e-05,-9.7265468026464e-05,1.79875912396099e-05,-0.000451228022170902,4.65737659736121e-05,-5.12039849809298e-06,-5.42617537089285e-05
19:5857069:C:T,-0.00305533619582743,-0.000514056344993463,-0.00216458935613772,-0.00180931139807594,-0.00130736718434843,-0.00196470190598053,-0.0129182799247021,-0.0102248859155694,-0.0129350762351756,-0.00573884886114229,-0.00533238465640462,-0.00747495032672907,-0.00043144174981169,0.238004152408613,-0.00194859552908833,-6.49303917450439e-05,-0.00387119831856175,-0.00536560544704168,-0.00208092863861919,0.000352676296884624,-0.001463372870119,-0.00266010627395552,-0.0124389857329108,-0.00281442395599552,-0.00554820265681677,-0.0021053892611822,-0.00741918077494219,-0.00171450615369695,-0.00470025915075389,-0.00337857455449608,-0.00371043104646596,-0.00458369608044418,-0.00168420118725399,-0.00842333548356455,-0.00680518087116511,-0.00439972626343677,-0.0014067687517012,-0.00898373023518495,0.000369104340883553,-0.00241353138135114,7.84692499302686e-05,-0.00975036401699469,-0.00153357032755164,-0.00090473274678704,-0.00114293761069284,-0.00212934886045257,-0.00782245587208719,-0.000309473430058382,-0.00973892343975979,-0.000216530207096,0.000855404536307169,-0.00789710396617682,-0.00176516718449093,-0.00217177582122741,-0.000638099383613699,-0.00429966210739341,-0.00587653011953249,-0.0109953764016546,-0.000680985380419941,-0.00287765212883428,-0.00305302676240338
19:5857120:C:G,-0.00513530976327559,4.84968515177542e-05,-1.62030124881696e-05,-0.0001219207662011,-0.00254546714935344,-0.00200286327756771,-4.34865276073282e-05,-0.00181013700694388,-0.000896497600980872,2.18719624323072e-05,-0.00145322412863003,-0.00751505779414785,-1.48312311782917e-05,-0.00194859552908833,0.0726859461890594,9.73056817699103e-06,-0.000882086617724376,-0.000753326247987296,-0.000792501634844456,-0.00244835147071498,-0.000490255521884642,-7.73934799180864e-06,-0.00279717324078366,-0.00109703501991021,-0.00518901997826138,5.67802046216315e-05,-0.00072464067417588,-0.00173088464734672,-0.00151475564338099,-0.00180069574967057,-8.44653157283659e-06,-0.000193264725516507,-6.84809490563154e-05,-0.00191047540556788,-4.44271373325478e-05,-0.00145802369733694,-0.00298896307294338,-4.93682861177902e-05,2.61118429820684e-05,6.15759994531118e-05,-0.00247464175447387,-0.00398907874112187,-0.000105312710125816,-4.60537194797439e-05,-0.00159872625456359,-0.00157282042149909,-0.00367494863733997,3.3906339469425e-05,-1.87366125397048e-05,-0.000708560261424296,-1.48312311782917e-05,-0.000141098756155422,9.63083988425595e-05,-0.0011985716429086,2.18719624323072e-05,-0.00300017222713223,-0.000678287239936459,-0.00335113363854012,7.41454748984793e-05,-9.0950130120504e-06,-0.000101167544871217
19:5857466:C:T,4.51117155835234e-05,-2.17763227876588e-05,6.249687935167e-06,3.91523996210452e-05,-0.00202032198286872,-5.76526205442462e-06,-1.32444500300366e-05,-0.000921403168112178,-0.00230883610077282,-9.39372846353592e-06,5.3016513322568e-05,0.000292694995532194,5.76990006351252e-06,-6.49303917450439e-05,9.73056817699103e-06,0.0792241787361885,-0.0067176907851243,-0.00695015159192103,4.51089237696323e-05,1.07660814947508e-05,-1.44609981536092e-05,2.82050184008398e-06,8.21200237144382e-06,4.54036110264511e-05,0.000372073837080045,-0.00303695116165592,-0.00117812775866888,-0.00225571926897139,-2.13883399400316e-05,-1.33879504549128e-06,1.39095311091353e-06,-0.00126020402030314,-0.00192449765400227,-0.00195741446999254,-0.0054490006814758,6.00700733599524e-07,2.00578410955998e-05,1.79349334636925e-05,-0.000389151923895881,-0.0051225802373347,-0.00240743222918205,-0.00140649988792418,-1.44609981527211e-05,1.68999637457645e-05,-0.0136374498922178,-0.000663971620286752,-0.0027831668815308,-1.48812358524708e-05,5.29300079676887e-06,-5.52310396475519e-05,5.76990006351252e-06,4.39377897327731e-05,-0.000913931439408877,0.000403856969055205,-0.00298435828232613,-0.00921039789587841,-0.00211302113942313,-0.00282869586681489,-3.51352627294688e-05,3.3058549675502e-06,3.36453839233641e-05
19:8585167:A:C,-0.00515676592775094,-0.00122614598471493,-0.00491005414173529,-0.0129763545659394,-0.00150631328982653,-0.00510470685496234,-0.00673203849378901,-0.0129229417136654,-0.00193116282160144,-0.00896778078142013,-0.00306953934584353,-0.00379826599392263,1.79485126610146e-05,-0.00387119831856175,-0.000882086617724376,-0.0067176907851243,0.251528416466066,-0.00218206569550583,-0.0119195335597864,4.10039546823171e-05,-0.0023885850201415,-0.00342077986642231,-0.000918480885322204,-0.00627345513638922,-0.00485102137322579,-0.00460054760138728,-0.00663277844002508,-0.00158386068979732,-0.00716096685079748,-0.000652093448150204,-0.00585203726504258,-0.00898888448976187,-0.00766461646561778,-0.00201754678896693,-0.00132249248814498,-0.00795013868690964,-0.00665228950935326,-0.00354295207373845,0.000174329528339179,-0.0058991545301641,-0.000557200015581127,-0.0095465709011826,-0.00743695643230247,0.000116484250743731,-0.00576401023056405,-0.00179863074011255,-0.000699289969235739,-0.00131733830109404,-0.0144926283222082,-0.00420519653414608,1.79485126610146e-05,-0.00284236269193805,-0.00299632074897538,-0.00166914423207132,-0.00119912554974899,-0.00360566065177448,-0.0050410431541863,-0.00115436531665214,-0.000916210826014563,-3.43261912778559e-05,-0.00437242391485526
19:8586086:C:A,-0.0131470055616401,-0.00132283344782103,-0.00141650885004552,5.03288154574122e-05,-0.000583992497491082,-0.000223162050204451,-0.00284090051930663,-0.003519325812122,-0.00255306453299253,-0.00665517434120577,-0.0117319724945135,-0.00462623050713207,-0.000800906596625239,-0.00536560544704168,-0.000753326247987296,-0.00695015159192103,-0.00218206569550583,0.256574460495687,0.00116567508027554,-0.00197415572282011,-0.0023033204694709,-0.00315536837937369,-0.00330667467692436,-0.0115144091667365,-0.00800775654302566,-0.00103059508692382,-0.00629154502996432,-0.00500407631694122,-0.0011483247472972,-0.0022113591071431,-8.90839649958508e-06,-0.00398481624979174,-0.00937396639305454,0.000149857991929458,-0.0114564364826228,-0.00251168249745337,-0.0134402026180434,-0.00427792090180823,0.00111437781820278,-0.0090531057104597,-0.00448047246240257,-0.0142749746254327,-0.00243605692040649,0.000777371859251197,-0.000319644276375985,-0.00160167995402372,-0.017917298194809,-0.00621371038469309,1.07133244835467e-05,-0.0027179482084625,0.000260901322293172,-0.00302803584480227,-0.00194737857563521,-0.00320999385356657,-0.00164810945392535,-0.00363773881547624,-0.00192963309856875,-0.023720037852764,-0.000426287787739454,-0.00297639126811067,-0.00289144444047551
19:8588164:G:A,-0.00215111144550484,0.000252232219331461,-8.44831442234906e-05,-0.00719442528087999,-0.00278543068597248,4.48080968737941e-05,-0.000747216006335982,-0.00641836890856773,-0.00428262791542178,0.000106832595291095,-0.000391466093359938,-0.00423869777553687,-7.60873135643436e-05,-0.00208092863861919,-0.000792501634844456,4.51089237696323e-05,-0.0119195335597864,0.00116567508027554,0.0689015868443339,-0.000164954232046988,0.00016225553760929,-0.00415591211691257,-0.00168982862727063,-0.00349755478008706,-0.0011481808813194,-0.000581746251062221,-1.65971038752488e-05,-0.00269778466860959,0.00024576743889515,-2.88161718131619e-06,-2.39374360511135e-05,-0.00022987309853395,-0.000878200505290749,-0.00111279266933995,-0.000684494739041419,-0.00146668107743331,-0.00070867247494899,-0.000250098117759556,0.000135585503274527,0.000327222129334004,-0.000264217161496383,-0.00143388001020739,0.00016225553760929,-0.000231061181822589,7.99725983622324e-05,-0.00011030060769901,-0.00243486029337658,0.000169323161498092,-9.23342042504771e-05,-0.00186245431143739,-7.60873135643436e-05,-0.000672994544747674,0.000532962182859364,0.000343371282739646,0.000106832595291095,0.000523180866811579,-9.57862505410745e-05,-0.00440988409618681,0.000401286755349339,-5.72693396883039e-05,0.000507938764890525
19:8588193:A:G,-0.00724971282450948,-0.00365677108585061,-1.80468915900178e-05,-0.000775999328536336,-0.0018393292004335,-0.000745608037921563,-0.00257145201191822,-0.00184840633617522,-0.00299296907939617,2.41870667165855e-05,-0.000172108638313517,2.84349818802099e-07,-1.6507892884654e-05,0.000352676296884624,-0.00244835147071498,1.07660814947508e-05,4.10039546823171e-05,-0.00197415572282011,-0.000164954232046988,0.0698879375150669,3.63294701726247e-05,-8.66076817285233e-06,-0.00175775134113376,-0.00500218266529906,-0.00155005351861437,-0.00148839007103074,7.94658546965366e-05,-0.00327827934919567,-0.000342715776422864,2.50756019326559e-06,-4.23570568131026e-06,-0.00238495004408756,-0.00177302988976091,-0.00237299117833611,-0.00195711081157768,-0.00138237614781733,-6.30162036960868e-05,-5.51837236786312e-05,2.88968327923911e-05,6.77710256091757e-05,-0.00391746981031549,-0.00237917588718828,-0.00263081140551691,-5.14397592477067e-05,-0.0013261412561838,-2.28009595897305e-05,-0.000670742511341249,-0.00157332086051198,-9.38565691122051e-06,-0.000505733423706189,-1.6507892884654e-05,-0.000723412395217338,-0.000572174997762076,-0.00334752047990428,2.41870667165855e-05,-1.23290991931313e-05,-0.00188283765405828,-0.000976536697913311,8.14400558963868e-05,-1.01799920280143e-05,-0.000113632443651035
19:8588997:C:T,-0.00761097749575868,-0.000760378014923901,2.14321368208203e-05,-0.00306478611622119,-0.00616259677406017,-0.00634884658241663,-0.0155776622797426,-0.00152283320804392,-0.00161690435632877,-3.24889382410376e-05,-0.00127765267381186,-0.00266784544596899,1.9859055544913e-05,-0.001463372870119,-0.000490255521884642,-1.44609981536092e-05,-0.0023885850201415,-0.0023033204694709,0.00016225553760929,3.63294701726247e-05,0.106706854868424,9.12786068951732e-06,-0.00200548634835851,-0.00384901526038206,-0.00345385075847382,-8.92024273069225e-05,0.000262100999730563,-0.00269749611894721,-7.27882895139587e-05,-0.00167297830127833,-0.000563602401995489,-0.00180359759432047,6.62125807142644e-05,0.000285007318980846,-7.36588817851214e-05,-0.00473466193157623,-0.00481540355404331,-0.00185285597684626,-3.78539724756877e-05,-9.57659828859647e-05,-0.00207480777834235,-0.00264077992906486,-0.000311045929207054,-0.000593126494950802,-0.00145218876489661,2.62470647252044e-05,-0.00298804721131329,-5.11261164799492e-05,1.71783175053619e-05,-0.000182970878479516,1.9859055544913e-05,0.000157901074948619,-0.000288474414822382,-0.000379751927461314,-3.24889382410376e-05,-0.00126356373632852,-0.00694024267547988,-0.0045009341249127,-0.0001178104065227,-0.00168869339759681,-0.00116312805183494
19:8592889:T:C,-0.00242015177292298,-0.00126564741595292,-4.75981272707315e-06,-0.000746655608205415,-0.00187798988258958,-0.00444124741533791,-0.00651353701935431,-0.00245084250752381,-0.000566349276284406,-0.0017548201859805,-0.000987031503574265,-0.0114007244276646,-3.67146961899323e-06,-0.00266010627395552,-7.73934799180864e-06,2.82050184008398e-06,-0.00342077986642231,-0.00315536837937369,-0.00415591211691257,-8.66076817285233e-06,9.12786068951732e-06,0.0749194191746785,-6.41747780782964e-06,2.8633179442572e-05,-0.000102690700667374,1.50393010764915e-05,-4.36832657575437e-05,-0.00153242502665041,1.28081828121296e-05,8.14335016308121e-07,-1.05520028981232e-06,-0.00200060638538258,-1.67436871274518e-05,1.03222366210076e-05,-5.43954164378135e-07,-4.13626114159626e-05,-1.72672800733409e-05,-1.50933973648293e-05,7.26548056384502e-06,1.60802914956903e-05,-0.00190259754579092,-0.00271564009631398,9.12786068951732e-06,-1.4062048389718e-05,-0.000888308921825676,-5.9921786270678e-06,-0.00236826216131014,9.37543464019086e-06,-0.00492314490206613,-0.0059419669407399,-4.36298639083788e-06,-4.6920991482402e-05,2.31675407729171e-05,-0.000121682263587886,6.18140114383436e-06,-6.60323207233304e-05,-0.00224000061364293,-0.00219503630484219,1.88329221000316e-05,-2.55038031049537e-06,-3.25710102719867e-05
19:8596457:C:T,-0.000148040451082743,-0.00347187201581711,-1.35221820904974e-05,-9.97092481416217e-05,-0.00163401313314804,1.07480030910878e-05,-0.00284203570730046,-0.00172752104542351,-0.00210960530544479,-0.00253101677408463,-0.0059849110703718,-0.00514913981979515,-1.23904191751123e-05,-0.0124389857329108,-0.00279717324078366,8.21200237144382e-06,-0.000918480885322204,-0.00330667467692436,-0.00168982862727063,-0.00175775134113376,-0.00200548634835851,-6.41747780782964e-06,0.0999391999234645,-7.71222387401238e-05,5.59851128079103e-05,4.84246618235318e-05,-0.00219377440359381,-0.00548465004758203,-0.0016870403186342,2.05297221445022e-06,-0.00277950148599437,-0.00114416535413397,-0.00609516031852042,-0.00236257901786541,1.68540617018209e-05,-0.000103632705093837,-4.65378594070032e-05,-4.09125606770644e-05,2.20522446729987e-05,5.25438690157642e-05,-0.00363322274828448,-0.00178834804120687,-0.00556541974075753,-3.82140834513933e-05,-0.00828610638177096,-1.70102532965899e-05,-2.1170603542231e-05,2.87357713295577e-05,-0.00258071447719121,9.29530606583739e-05,-1.23904191751123e-05,-0.000115040027329094,-0.0054535697776954,5.73264801664308e-05,1.8486480030333e-05,-0.000173281767824385,-2.09041822323286e-05,3.85359517132144e-05,6.3513370890611e-05,-7.53871917336113e-06,-8.30409303915758e-05
19:8597865:C:T,-0.00432857361699357,-0.00416112111449429,-0.0013254353717409,-0.00928124399612784,-0.0041418526911734,-0.0039571858586438,-0.00252258680923312,-0.00502809143057181,-0.00511245973564911,-0.00123054982092263,-0.00667248444825619,-0.00455901684834092,0.000135895614586268,-0.00281442395599552,-0.00109703501991021,4.54036110264511e-05,-0.00627345513638922,-0.0115144091667365,-0.00349755478008706,-0.00500218266529906,-0.00384901526038206,2.8633179442572e-05,-7.71222387401238e-05,0.170103404896465,-4.37183907742167e-06,-0.00171396431742377,-5.37305128873733e-05,-0.000289955425750943,-0.000876633013401573,2.06539004672379e-05,-0.00204858108756767,-0.00483939983816439,-0.00221112860805039,-0.000214908740312048,-0.000596131092798657,-4.30501580073184e-05,-0.000171546179490889,-0.00270036710638877,-0.000100988398076041,-0.00124823341107749,-0.0031877872378665,-0.00711121132079695,-0.00542326254352865,0.000222230729340467,-0.001448475741606,-0.000104659974248911,-0.0141015812359795,-0.000957188964467726,-0.000715291870740487,-0.00342318156232047,-4.93667696668254e-05,-0.00558457852543537,-0.00141332852677944,-0.000735074670112468,-0.00153688360976911,-0.00322049720975714,-0.000416285456775078,-0.0128478991232752,-0.00127856427231876,-0.000539544808725978,-0.00290276881299523
19:8600315:C:G,-0.00684980641835775,-0.00578218390449514,4.38254658563508e-05,-0.00103279199585682,-0.00112187045418644,-0.00888809578801553,-0.00164003404108204,-0.00479147799987123,-0.00773951599101874,-0.00262384551090911,-0.000461493321196826,-0.00145859563129047,4.08631275297111e-05,-0.00554820265681677,-0.00518901997826138,0.000372073837080045,-0.00485102137322579,-0.00800775654302566,-0.0011481808813194,-0.00155005351861437,-0.00345385075847382,-0.000102690700667374,5.59851128079103e-05,-4.37183907742167e-06,0.161678397766839,-0.00113190800332053,-0.00678665997395456,-0.00119385620111956,-0.000152914410043614,-0.00265267467284147,-0.00282222078647631,-0.0065069145722183,-0.00363772997880396,-0.000128322138208681,-0.00058743949419604,-0.00043790958509593,-0.00208702262305493,0.000127527661874183,-7.86526296181478e-05,-0.000511721108943597,-0.00242071624720364,-0.00425793855371781,-0.000105693409024887,0.000120847770075372,-0.0117509907834745,-0.00204100991872647,-0.0103461514116057,-0.00579254775319527,-0.00574235246151744,-0.000397631268622689,4.08631275297111e-05,0.000322434897071844,-0.000405695023935948,0.000287937135053262,-6.88296598445604e-05,-0.00603561989765034,-0.0017390016995007,-0.00716518470164473,-0.000245967670716496,-0.00263547379548967,-0.000979146162189082
19:8601959:G:A,-0.000488047863096419,-0.000130950127298135,3.76910538149033e-05,0.000249483337172229,-0.00141743484009371,-0.00306288020551548,-0.00308949080031251,-0.00153924944815476,-0.000468796930345405,-5.8232368073341e-05,-0.0019262055730227,-0.00620891203607998,3.50773622130873e-05,-0.0021053892611822,5.67802046216315e-05,-0.00303695116165592,-0.00460054760138728,-0.00103059508692382,-0.000581746251062221,-0.00148839007103074,-8.92024273069225e-05,1.50393010764915e-05,4.84246618235318e-05,-0.00171396431742377,-0.00113190800332053,0.0503598927850644,-0.000208651809598059,-0.000124437720097514,-0.000823528705597099,-1.16167991093263e-05,7.39982514286197e-06,6.65693789811961e-05,0.000114845949135578,-0.0003554429411885,-1.97104657528868e-05,0.000248425958272236,0.000122433564518687,-0.00191933625479024,-6.68836060331301e-05,-0.00016888560740469,-0.000873094624957105,-0.00444023169778296,-8.92024273069225e-05,0.000104281289310393,-0.000841255424572473,4.56985554890821e-05,-0.00306507460724958,-9.12739752383374e-05,-0.00150736875280355,-0.000320400751784078,3.50773622130873e-05,0.00028263767481107,-0.000281437788046013,-0.0011029930828883,-5.8232368073341e-05,-0.000337073084802242,-9.19503791507736e-05,-0.00189328371872488,0.000800390846785071,1.76410536303351e-05,0.000212470802162024
19:8603573:A:G,-0.00285050557772459,-0.0010869569717169,-0.00183370321769694,-0.00183097423213852,-0.00533582250769982,-0.00157452707847394,-0.0022556802536009,-0.00168615287022478,-0.00158018576347008,-0.00691827201722539,-0.00358442651815549,-0.00957869591853777,-0.000381631982825148,-0.00741918077494219,-0.00072464067417588,-0.00117812775866888,-0.00663277844002508,-0.00629154502996432,-1.65971038752488e-05,7.94658546965366e-05,0.000262100999730563,-4.36832657575437e-05,-0.00219377440359381,-5.37305128873733e-05,-0.00678665997395456,-0.000208651809598059,0.171660553196821,-0.000579092766040734,-0.000388386471041891,-0.00353425621911541,1.43739240163754e-05,-0.000531813366876577,-0.000800262420463937,-0.00518407447642577,-0.00767420311890454,-0.000125739856216889,-0.00926834250593789,-0.00173040890624954,0.000561894498281923,0.00120898093648769,-0.00391836843393278,-0.00527241651022825,-0.00599277617188587,-0.000172786073806996,-0.00788800106013765,-0.00160186581319088,-0.010630166212072,1.46796391664594e-06,-9.41710572615051e-05,-0.00567924492771166,-0.000381631982825148,-0.000160249785077227,-0.00145126840100307,-0.00141541878730322,0.000257154980821461,-0.00123672420882315,-0.00549596826677057,-0.0100190067440837,-0.000883899779581476,-0.00869991724267294,-0.00118862613219761
19:8609696:C:G,-0.0120818081186571,-0.000729873581662766,-0.00163144999187637,-0.00358757178703506,-0.00290605430672786,-0.00428800236533622,-0.00248074935030651,-0.00769786687982998,-0.00492245417049686,-0.00721709347039923,-0.00661305314720773,-0.00184975504778384,-0.000175463658191433,-0.00171450615369695,-0.00173088464734672,-0.00225571926897139,-0.00158386068979732,-0.00500407631694122,-0.00269778466860959,-0.00327827934919567,-0.00269749611894721,-0.00153242502665041,-0.00548465004758203,-0.000289955425750943,-0.00119385620111956,-0.000124437720097514,-0.000579092766040734,0.183339210222431,-0.000850700964706519,-0.00193400722478998,-4.4479129271302e-05,-0.0100343295118357,-7.88664346980106e-05,-0.00024389817534809,-0.000733333693582416,-0.00242125336352839,-0.000366863420313557,-0.0122072520893655,0.000277063712601056,-0.000452860602947247,-4.28762212796308e-05,-0.00420359579146234,-0.00437170437252554,-0.000129248560703843,-0.0100189682760332,-0.00389588959118381,-0.00478088691108258,-0.00324430690486732,-0.00342117253920593,-0.000449444190504522,0.000218717143473768,-0.00466924053892992,-0.00367788604859598,-0.00135817427164353,-0.00386703792101706,-0.00259717954296912,-0.00785796479506295,-0.0018597424126896,0.000721231622633489,-0.00189446541867611,-0.00650037350606159
19:8610681:C:T,-1.39155421248205e-05,-0.0001069785401695,3.13258785569204e-05,0.000210440373879628,6.00497595799609e-05,-3.18869930238108e-05,-0.00106415678784977,-0.00317386070946934,-0.00257071258878661,-4.76236352948689e-05,-0.00337798889194918,-0.0014882646112131,2.90971600120926e-05,-0.00470025915075389,-0.00151475564338099,-2.13883399400316e-05,-0.00716096685079748,-0.0011483247472972,0.00024576743889515,-0.000342715776422864,-7.27882895139587e-05,1.28081828121296e-05,-0.0016870403186342,-0.000876633013401573,-0.000152914410043614,-0.000823528705597099,-0.000388386471041891,-0.000850700964706519,0.0495427979502345,-8.9882121567797e-06,6.30029309345304e-06,-0.00167232803449924,9.66133874653607e-05,-8.68323171774321e-05,-6.58136637605722e-05,-0.00203136767411927,0.000102496324686285,9.20065186953423e-05,-5.49819670476737e-05,-0.000137775958259034,6.79796446343417e-05,-0.00443415925067647,-7.27882895139587e-05,8.69273958103989e-05,-0.002968255941731,3.81568990626135e-05,-0.00119571429014709,-7.45522085381367e-05,-0.000831842776130465,-0.000259173398819534,2.90971600120926e-05,0.000239047718872065,-0.000228144729757851,-0.000155698887121858,-4.76236352948689e-05,0.000294975447300949,-7.36876384292984e-05,-0.00214986004444206,0.000126189498685925,-0.00332536183250198,0.000178664699247655
19:8614738:A:G,-0.000311013173257102,-9.19809811605887e-06,1.63949465026292e-06,-7.54932365509831e-08,-0.00261780303990022,-1.89938761607777e-06,-0.00149774827115046,-0.0118595928650325,-0.00423222061212236,-0.00277632192813915,-0.00139620149917263,-0.00147521995596644,1.53015108761423e-06,-0.00337857455449608,-0.00180069574967057,-1.33879504549128e-06,-0.000652093448150204,-0.0022113591071431,-2.88161718131619e-06,2.50756019326559e-06,-0.00167297830127833,8.14335016308121e-07,2.05297221445022e-06,2.06539004672379e-05,-0.00265267467284147,-1.16167991093263e-05,-0.00353425621911541,-0.00193400722478998,-8.9882121567797e-06,0.0695196544122667,4.14460296305208e-07,-0.00197875195779007,-0.00375589800273168,-7.26005774414062e-05,-0.00196819129182213,-0.00123403039046988,3.29273216870263e-06,3.232658328578e-06,-4.06803792252219e-06,-1.29245361950581e-05,8.79270906040119e-06,-0.00329407111683278,-5.54185618195646e-06,3.17529086490964e-06,-0.00362157963332299,-0.00173113345071219,-0.00147915232464335,-5.74065339176144e-06,-0.00220165967038088,-3.16071805759321e-05,1.53015108761423e-06,-2.2426365253736e-06,-2.62285525769457e-05,-0.00015435311512757,-3.33838332533531e-06,-0.000240903699093131,-5.11681802706221e-06,-0.00144590840400838,-1.71101032666598e-05,-0.00224007824088979,1.69883024003781e-06
19:8615608:C:T,-0.0110868325276652,6.39890507692087e-06,-2.33682540695668e-06,-1.96018349996052e-05,-0.00251636131988686,-0.00238905831501324,-0.0117580073775656,-0.00547299741312912,-0.0023120648722621,3.04404098727673e-06,-0.00482286277394461,-0.00307255561427322,-2.14350637772753e-06,-0.00371043104646596,-8.44653157283659e-06,1.39095311091353e-06,-0.00585203726504258,-8.90839649958508e-06,-2.39374360511135e-05,-4.23570568131026e-06,-0.000563602401995489,-1.05520028981232e-06,-0.00277950148599437,-0.00204858108756767,-0.00282222078647631,7.39982514286197e-06,1.43739240163754e-05,-4.4479129271302e-05,6.30029309345304e-06,4.14460296305208e-07,0.0836451319055751,-0.00127708144168182,-8.18937808944042e-06,-0.00194362523544989,3.11820353537939e-06,-2.02350780682536e-05,-8.46861784431496e-06,-7.41033550166748e-06,3.57200775713551e-06,7.90644853410072e-06,4.12322194165426e-08,-0.00181394552217107,4.4941950987365e-06,-6.90802054403861e-06,-0.00229599904407607,-2.9370039582588e-06,-0.00521318090192491,4.61469325063746e-06,-2.02291903139695e-06,1.22923376384421e-05,-2.14350637772753e-06,-2.30333161574947e-05,1.13887673389712e-05,-0.000130595271153666,3.04404098727673e-06,-0.00260197615603097,-0.00210366308771892,-0.00494327669183203,9.25845221999566e-06,-1.24196394946097e-06,-1.59923408853402e-05
19:8615920:T:C,-0.00977126307002951,3.35244266382873e-05,-0.00446355137870125,-0.00409663857292042,-0.00578970568381809,-0.000423070726446095,-0.00827479299377298,-0.00549885941991457,-0.00775115073590493,-0.00463702738759775,-0.00015810699937413,-0.014519059182911,-0.000216465011912526,-0.00458369608044418,-0.000193264725516507,-0.00126020402030314,-0.00898888448976187,-0.00398481624979174,-0.00022987309853395,-0.00238495004408756,-0.00180359759432047,-0.00200060638538258,-0.00114416535413397,-0.00483939983816439,-0.0065069145722183,6.65693789811961e-05,-0.000531813366876577,-0.0100343295118357,-0.00167232803449924,-0.00197875195779007,-0.00127708144168182,0.224324148673072,0.00044411537426603,0.000125839018215501,-0.020455235846899,0.00016876886504269,-0.00915715182320387,-0.00397228418152995,0.000608735424446394,-0.00342394199731633,-0.0017605497029507,-0.00129274203318541,-0.0103242976132734,3.12912226441142e-06,-0.0089665690704166,-0.00498592788623142,-0.00208102246981667,-0.00400521838602685,-0.0144060451245402,0.000444583919524177,-0.000216465011912526,0.000944642324497202,-0.00530505992753483,0.000152357477313902,0.000238505628646912,-0.00583380380200804,-0.00338710654060792,-0.00045225387507708,0.000338365738648427,-0.00426889512363626,-0.0045843470267446
19:8615982:C:T,-0.00874905268296633,-0.00130675342088082,-0.00573756713333129,-0.000668874212010451,-0.001140644593427,2.37961576310397e-05,-0.00454952216368731,-0.000357942606986406,-0.00219723412314377,-0.00248620061229854,-0.00125096963006044,-0.000815255535476567,-3.03362707194665e-05,-0.00168420118725399,-6.84809490563154e-05,-0.00192449765400227,-0.00766461646561778,-0.00937396639305454,-0.000878200505290749,-0.00177302988976091,6.62125807142644e-05,-1.67436871274518e-05,-0.00609516031852042,-0.00221112860805039,-0.00363772997880396,0.000114845949135578,-0.000800262420463937,-7.88664346980106e-05,9.66133874653607e-05,-0.00375589800273168,-8.18937808944042e-06,0.00044411537426603,0.119008559060795,-0.00627961663115784,1.57272988827728e-05,-0.000264841893340417,-0.000116118193068893,-0.000101242066441465,-0.000307139824192504,-0.00452637379301457,-0.00787049436737686,-0.00304692283885277,-0.00238507402711274,-9.41301358849955e-05,-0.00453812759432726,-4.24261870666243e-05,-0.0031646305999824,-0.00171214117659524,-3.1878331891555e-05,-0.00152697357349219,-3.03362707194665e-05,-0.000334674980911664,0.000196809544577903,-0.00162348319084327,-0.00574665311289468,-6.71562482050803e-05,-0.00402524258791015,-0.00279439803203463,0.000151359507825966,-1.96803315803962e-05,-0.000206958014885572
19:8617106:G:A,-0.000223917833376497,-0.00428338811228102,2.43596683384695e-05,-0.00231003415773223,-0.0114605304086348,-0.00886567403664351,-6.71312742648311e-05,-0.000923739245060062,-0.00545494554785009,-3.81194277494501e-05,-6.19789529716641e-05,-0.00235571132282697,2.2606279078019e-05,-0.00842333548356455,-0.00191047540556788,-0.00195741446999254,-0.00201754678896693,0.000149857991929458,-0.00111279266933995,-0.00237299117833611,0.000285007318980846,1.03222366210076e-05,-0.00236257901786541,-0.000214908740312048,-0.000128322138208681,-0.0003554429411885,-0.00518407447642577,-0.00024389817534809,-8.68323171774321e-05,-7.26005774414062e-05,-0.00194362523544989,0.000125839018215501,-0.00627961663115784,0.108571336070388,-0.0037283735939182,-8.50036617228156e-05,-0.00219359852933465,0.000842640389223881,0.000440521519486481,-0.00011521218971744,-0.000976204750481102,-0.0021903222107551,-0.00246463598760727,-0.00033229837375881,-0.00147757156952188,2.97118714946976e-05,-0.00214092912535691,-6.04831045381005e-05,1.93650321520522e-05,-0.00037463252374792,-0.000393852883862067,-0.00435884419770094,-0.00241030801267605,-0.00328822702780052,-0.00128472755575526,-0.00042099830361586,-0.000218045537383915,-0.00177962452499258,-0.00474560010054237,-0.00387188766882929,-0.000898559396555143
19:8620823:A:G,-0.00669646957951286,-0.00104281917505133,-0.00552870537703942,2.50481393804236e-05,-0.00244664089516533,-0.000676504497906016,-0.00572435058634291,-0.00665856181135283,-7.03242862072351e-05,-0.0119184934814447,-0.00594823756279927,-0.00543976271002622,-7.40751167365161e-05,-0.00680518087116511,-4.44271373325478e-05,-0.0054490006814758,-0.00132249248814498,-0.0114564364826228,-0.000684494739041419,-0.00195711081157768,-7.36588817851214e-05,-5.43954164378135e-07,1.68540617018209e-05,-0.000596131092798657,-0.00058743949419604,-1.97104657528868e-05,-0.00767420311890454,-0.000733333693582416,-6.58136637605722e-05,-0.00196819129182213,3.11820353537939e-06,-0.020455235846899,1.57272988827728e-05,-0.0037283735939182,0.204920678120345,-0.000139386139700548,-0.0112621596873046,-0.0035852452836016,-3.03840651803e-05,-0.00101215511272379,-0.00270995004265107,-0.00713083646688073,-0.00280972694099102,-0.000319696476743125,-0.00772243372402803,-0.00255898812999966,-0.0124236576633057,-0.000948433409270422,-2.2104882386742e-06,-0.00245360950341578,1.241522503026e-05,-0.000685020385848389,-0.00109655011873233,-0.000694117967300123,-8.6982584429407e-05,-0.000766816974711926,-0.0038282138524961,-0.0132791691628729,-0.00136116039591805,-0.000555185994871366,-0.0116850270891309
19:8620861:C:G,-0.00285982641709159,0.000215446362764382,-7.37247956656972e-05,-0.00356293709937905,-0.000208116578576778,-0.000296691703959517,-0.00468442748341547,-0.00137212242118601,-0.00399973988801694,-0.000674411074930603,-0.00217938546717011,-0.00305054914085012,-6.65133830102249e-05,-0.00439972626343677,-0.00145802369733694,6.00700733599524e-07,-0.00795013868690964,-0.00251168249745337,-0.00146668107743331,-0.00138237614781733,-0.00473466193157623,-4.13626114159626e-05,-0.000103632705093837,-4.30501580073184e-05,-0.00043790958509593,0.000248425958272236,-0.000125739856216889,-0.00242125336352839,-0.00203136767411927,-0.00123403039046988,-2.02350780682536e-05,0.00016876886504269,-0.000264841893340417,-8.50036617228156e-05,-0.000139386139700548,0.0719785794443486,-0.00135905605085096,-0.000955593330498772,-0.000474197513925745,-0.0010397821230157,3.51402854681382e-05,9.40015094625934e-05,-0.00208607843664055,-0.000204805846378164,-0.00148096778744922,-0.00017723547441495,-0.000871495153908164,0.00049487474586396,-0.000204819542003243,0.000494826131727244,-6.65133830102249e-05,-0.00198430860361842,-0.00063411369839983,-0.00169835045625799,-0.00202680554691348,-0.000480455322098727,-0.000236906706094331,-0.00173932554750778,0.000336820202731403,-0.00167839119674884,-0.000788733614684567
19:8621212:C:T,-0.000194461953292979,-0.00164576724683307,-0.00104442459661325,-0.000243539776493051,-0.00290679939597194,2.45575800077447e-05,-0.00162429176694001,-0.00944379946626572,-0.000141985450556881,4.59046588838774e-05,-0.00283020297517655,-0.00542593650146772,-3.10970718473413e-05,-0.0014067687517012,-0.00298896307294338,2.00578410955998e-05,-0.00665228950935326,-0.0134402026180434,-0.00070867247494899,-6.30162036960868e-05,-0.00481540355404331,-1.72672800733409e-05,-4.65378594070032e-05,-0.000171546179490889,-0.00208702262305493,0.000122433564518687,-0.00926834250593789,-0.000366863420313557,0.000102496324686285,3.29273216870263e-06,-8.46861784431496e-06,-0.00915715182320387,-0.000116118193068893,-0.00219359852933465,-0.0112621596873046,-0.00135905605085096,0.101370404715305,-0.000101991851569672,5.57799783411639e-05,-0.00129752661044957,-0.0028494245409636,-0.00066916673454287,-0.00212092069389502,0.000369505082057131,-0.00184499301087637,-4.33698894868328e-05,0.000479480496021978,-0.000170640939447964,-3.27188960262959e-05,0.000243280784927968,-3.10970718473413e-05,-0.000279625359834945,0.000216346618693741,0.000145271115974843,4.59046588838774e-05,-0.000518188532277364,-0.00110203053913605,-0.000777881842861206,0.000163647966780367,-2.02768427026712e-05,0.000113244393643797
19:8621494:G:A,-0.00388828348082892,9.39211698316456e-05,-3.01106211590962e-05,-0.000101434332210992,-6.41880789657989e-05,-0.00334952034454794,5.15748804348348e-05,-0.00553546610313393,-0.00427205977445499,4.10502918013478e-05,-0.000327836059694775,-0.00535510115980387,-2.74904783204022e-05,-0.00898373023518495,-4.93682861177902e-05,1.79349334636925e-05,-0.00354295207373845,-0.00427792090180823,-0.000250098117759556,-5.51837236786312e-05,-0.00185285597684626,-1.50933973648293e-05,-4.09125606770644e-05,-0.00270036710638877,0.000127527661874183,-0.00191933625479024,-0.00173040890624954,-0.0122072520893655,9.20065186953423e-05,3.232658328578e-06,-7.41033550166748e-06,-0.00397228418152995,-0.000101242066441465,0.000842640389223881,-0.0035852452836016,-0.000955593330498772,-0.000101991851569672,0.0981574138006174,4.97815817110947e-05,0.00012096999451483,-0.00266899982270186,-0.00364236391549788,6.23201347886848e-05,-8.34828896891793e-05,-0.011138639180051,-3.81626973462446e-05,-0.00138092133902301,6.44395097717521e-05,-2.85466732208306e-05,0.000221473555609641,-2.74904783204022e-05,-0.000241745439506502,0.000196368484513876,-0.00178513875090047,4.10502918013478e-05,-0.000917393294656677,5.30869604871143e-05,-0.00130051288953581,-0.00748765800206552,-1.77176378839405e-05,-0.0001772826948363
19:8621910:C:T,-0.000106697008980028,-5.58811676780735e-05,1.68485690217324e-05,0.000115476262386949,-0.00024928997110063,-1.59040887908191e-05,0.000232114138294826,-3.83886668249289e-05,-0.000161129964614481,-2.48443839110379e-05,0.000160011181056241,0.000321784142241377,1.55833532957672e-05,0.000369104340883553,2.61118429820684e-05,-0.000389151923895881,0.000174329528339179,0.00111437781820278,0.000135585503274527,2.88968327923911e-05,-3.78539724756877e-05,7.26548056384502e-06,2.20522446729987e-05,-0.000100988398076041,-7.86526296181478e-05,-6.68836060331301e-05,0.000561894498281923,0.000277063712601056,-5.49819670476737e-05,-4.06803792252219e-06,3.57200775713551e-06,0.000608735424446394,-0.000307139824192504,0.000440521519486481,-3.03840651803e-05,-0.000474197513925745,5.57799783411639e-05,4.97815817110947e-05,-0.000849842045671065,-7.18669632417956e-05,-0.000424998187933845,-8.06560824742064e-05,-3.78539724747995e-05,4.68814428824516e-05,-0.000220105568440765,2.07294228831145e-05,-0.000425003585601935,-3.88573647702728e-05,1.37085116476143e-05,-0.00013355239691748,1.55833532957672e-05,0.000131647670801982,-0.000117932805416388,-8.02697202235692e-05,-2.48443839110379e-05,0.000166495907543585,8.52367968189327e-05,-0.000533272498528525,-8.78070194483271e-05,8.52470748746725e-06,9.76020113272469e-05
19:8621941:G:A,-0.0072937666316939,-0.000139687764654894,4.09631624984641e-05,0.000279508235752068,-0.000931246902749372,-0.005149825123965,-0.00275187024176748,-0.00309246937288332,-0.000869295764302613,-0.00126111969963283,-0.000308626080575358,-0.00613355042548402,3.81469132699763e-05,-0.00241353138135114,6.15759994531118e-05,-0.0051225802373347,-0.0058991545301641,-0.0090531057104597,0.000327222129334004,6.77710256091757e-05,-9.57659828859647e-05,1.60802914956903e-05,5.25438690157642e-05,-0.00124823341107749,-0.000511721108943597,-0.00016888560740469,0.00120898093648769,-0.000452860602947247,-0.000137775958259034,-1.29245361950581e-05,7.90644853410072e-06,-0.00342394199731633,-0.00452637379301457,-0.00011521218971744,-0.00101215511272379,-0.0010397821230157,-0.00129752661044957,0.00012096999451483,-7.18669632417956e-05,0.0751669215401565,8.56628560548245e-05,-0.00314170001928371,-9.57659828859647e-05,0.000114463207105509,-0.000175608599726651,4.96002809988738e-05,-0.00260379516347786,-0.000996173850301041,3.03354556896451e-05,-0.000334381851176069,3.81469132699763e-05,0.000318319523473498,0.000334319829071283,-0.000203506726579761,-0.00228371367134272,-0.000670698589383179,-0.000700534896781235,-0.00265543068987473,-0.000218886395233042,1.88666829377127e-05,0.000236747005533999
19:8625106:C:T,-0.00230716842404988,-0.00117430987370781,-0.00131035325414164,-0.00223396281982602,-0.00390172646172182,-0.00385566626754752,-0.000294854028445979,-0.000220154271283413,-0.000599766371533139,-0.00373862319179885,-0.000598885491210233,-0.00581835437574707,0.000148442104055846,7.84692499302686e-05,-0.00247464175447387,-0.00240743222918205,-0.000557200015581127,-0.00448047246240257,-0.000264217161496383,-0.00391746981031549,-0.00207480777834235,-0.00190259754579092,-0.00363322274828448,-0.0031877872378665,-0.00242071624720364,-0.000873094624957105,-0.00391836843393278,-4.28762212796308e-05,6.79796446343417e-05,8.79270906040119e-06,4.12322194165426e-08,-0.0017605497029507,-0.00787049436737686,-0.000976204750481102,-0.00270995004265107,3.51402854681382e-05,-0.0028494245409636,-0.00266899982270186,-0.000424998187933845,8.56628560548245e-05,0.111268903841825,-0.00358851597174326,-0.00363513403489346,0.000247478580859273,-0.00486769845374324,-3.27864331941541e-05,-9.02800097701828e-06,-0.00160101546586322,-0.00184852228601251,-0.000491967953559325,0.000148442104055846,-0.00526434528798703,-0.00201947642171785,9.2060620787926e-05,-0.00169560563647586,-0.000512959266748325,-0.00513909821568337,3.96967245301916e-05,-0.00202049470562393,-0.00083343959585136,-0.00119167170622614
19:8626097:A:G,-0.0083868620610752,-0.00500482538580016,-0.0011762486099105,-0.00166337608601186,-0.00268954432813118,-0.00322839395629826,-0.00354488989224278,-0.0104653568946862,-0.00466184304445383,-0.00289650072207426,-0.00186021749537257,-0.00267148053130795,0.000390503927508057,-0.00975036401699469,-0.00398907874112187,-0.00140649988792418,-0.0095465709011826,-0.0142749746254327,-0.00143388001020739,-0.00237917588718828,-0.00264077992906486,-0.00271564009631398,-0.00178834804120687,-0.00711121132079695,-0.00425793855371781,-0.00444023169778296,-0.00527241651022825,-0.00420359579146234,-0.00443415925067647,-0.00329407111683278,-0.00181394552217107,-0.00129274203318541,-0.00304692283885277,-0.0021903222107551,-0.00713083646688073,9.40015094625934e-05,-0.00066916673454287,-0.00364236391549788,-8.06560824742064e-05,-0.00314170001928371,-0.00358851597174326,0.250222415179662,-0.000989266770723418,0.000325717412768434,-0.00750305771917903,-0.00794614061933352,-0.0164209775682407,-0.00872731859541886,-0.000437218181814192,-0.00402168554911508,0.00034924667698899,-0.00832090471412616,-0.000847874242707825,-0.00525812335576159,-0.00321877912267166,-0.00760661185908695,-0.000141403388468575,-0.0148931912298806,-0.00502381826759013,-0.00263533693709483,0.000395470595710101
19:8626736:G:A,-0.00752952096414994,-0.00076037801492479,2.14321368208203e-05,0.000139721465989062,-0.00249848086238202,-0.00144139054919901,-0.0046013384393131,-0.000768726392657015,-0.00222075827743762,-3.24889382410376e-05,-0.00452832256815849,-0.000813180336863173,1.98590555458011e-05,-0.00153357032755164,-0.000105312710125816,-1.44609981527211e-05,-0.00743695643230247,-0.00243605692040649,0.00016225553760929,-0.00263081140551691,-0.000311045929207054,9.12786068951732e-06,-0.00556541974075753,-0.00542326254352865,-0.000105693409024887,-8.92024273069225e-05,-0.00599277617188587,-0.00437170437252554,-7.27882895139587e-05,-5.54185618195646e-06,4.4941950987365e-06,-0.0103242976132734,-0.00238507402711274,-0.00246463598760727,-0.00280972694099102,-0.00208607843664055,-0.00212092069389502,6.23201347886848e-05,-3.78539724747995e-05,-9.57659828859647e-05,-0.00363513403489346,-0.000989266770723418,0.107965094210396,-0.000593126494950802,-0.00179574424552964,-0.00241648790052906,-0.00125056755223873,-5.11261164799492e-05,1.71783175053619e-05,-0.000182970878479516,1.98590555458011e-05,0.000157901074948619,-0.00243546216611534,-0.00010782950970345,-0.00120152333676948,-0.00126356373632852,-0.000694655820158374,-0.00537861009388596,-0.0001178104065227,-0.00168869339759681,-0.00116312805183671
19:8627047:C:T,0.000427337452792109,8.87336217099133e-05,0.00059480438752324,-0.000195555831116856,-5.9770163326256e-05,2.11027862633273e-05,-0.000430690055071459,-7.81571750323451e-05,3.47804646922967e-05,3.86929290598914e-05,-0.000299794546655185,-0.000371412967928642,-2.57497253919325e-05,-0.00090473274678704,-4.60537194797439e-05,1.68999637457645e-05,0.000116484250743731,0.000777371859251197,-0.000231061181822589,-5.14397592477067e-05,-0.000593126494950802,-1.4062048389718e-05,-3.82140834513933e-05,0.000222230729340467,0.000120847770075372,0.000104281289310393,-0.000172786073806996,-0.000129248560703843,8.69273958103989e-05,3.17529086490964e-06,-6.90802054403861e-06,3.12912226441142e-06,-9.41301358849955e-05,-0.00033229837375881,-0.000319696476743125,-0.000204805846378164,0.000369505082057131,-8.34828896891793e-05,4.68814428824516e-05,0.000114463207105509,0.000247478580859273,0.000325717412768434,-0.000593126494950802,-0.00513967255040804,0.00104787233443293,-3.56624600730271e-05,0.000274741961616698,6.08072769630041e-05,-2.65689031602179e-05,0.000210932944139763,-2.57497253919325e-05,-0.000223493487785831,0.000186710902202236,0.000124231026418897,3.86929290598914e-05,0.000367454025152369,5.03382176564315e-05,0.000567452254464307,0.000139967245851302,-1.65036780046535e-05,0.00391390801885727
19:8627125:C:T,-0.0188801755307386,-0.00816562850811042,-0.00108382411484964,-0.00488389945855339,-0.000401864001100982,-0.00301694534660868,-0.0025638208062726,-0.00246287898589204,-0.00391724573088181,-0.00351199815601611,-0.00503007128564636,-0.00578856980677367,-0.000267704623826859,-0.00114293761069284,-0.00159872625456359,-0.0136374498922178,-0.00576401023056405,-0.000319644276375985,7.99725983622324e-05,-0.0013261412561838,-0.00145218876489661,-0.000888308921825676,-0.00828610638177096,-0.001448475741606,-0.0117509907834745,-0.000841255424572473,-0.00788800106013765,-0.0100189682760332,-0.002968255941731,-0.00362157963332299,-0.00229599904407607,-0.0089665690704166,-0.00453812759432726,-0.00147757156952188,-0.00772243372402803,-0.00148096778744922,-0.00184499301087637,-0.011138639180051,-0.000220105568440765,-0.000175608599726651,-0.00486769845374324,-0.00750305771917903,-0.00179574424552964,0.00104787233443293,0.240479656563326,-0.000244972892610384,-0.00349243640467867,-0.0165483477458004,-0.00033389604249745,-0.00212932215523765,0.000375579171066676,-0.00195139208368467,-0.00762726866267904,-0.00407654331470875,-0.000431821357397943,0.00115773900963845,-0.00592546983743469,-0.00803751785176399,-6.06881099933787e-05,-0.000951597717843811,-0.00437436312788986
19:8627569:C:T,-0.00286337635231959,3.88649278972863e-05,-1.26504072346378e-05,-9.24870627070362e-05,-2.64723994893856e-05,1.01252707791488e-05,-0.00010167292323171,-0.00496982301349469,-0.00036077370306753,1.73805530723214e-05,-0.000152265030538778,-0.00488652755350483,-1.15959004727273e-05,-0.00212934886045257,-0.00157282042149909,-0.000663971620286752,-0.00179863074011255,-0.00160167995402372,-0.00011030060769901,-2.28009595897305e-05,2.62470647252044e-05,-5.9921786270678e-06,-1.70102532965899e-05,-0.000104659974248911,-0.00204100991872647,4.56985554890821e-05,-0.00160186581319088,-0.00389588959118381,3.81568990626135e-05,-0.00173113345071219,-2.9370039582588e-06,-0.00498592788623142,-4.24261870666243e-05,2.97118714946976e-05,-0.00255898812999966,-0.00017723547441495,-4.33698894868328e-05,-3.81626973462446e-05,2.07294228831145e-05,4.96002809988738e-05,-3.27864331941541e-05,-0.00794614061933352,-0.00241648790052906,-3.56624600730271e-05,-0.000244972892610384,0.0608996882936683,-0.000583709827126633,2.70479430177772e-05,-1.13664469001407e-05,8.83015500301454e-05,-1.15959004727273e-05,-0.00556672992609286,7.88485572122966e-05,-0.00200700782233021,1.73805530723214e-05,-0.000144684690241093,-0.00193441642130399,-0.000772125334618678,-0.000972105675124624,-7.03805163926319e-06,-7.7145383598598e-05
19:8628292:A:G,-0.000697851432540197,-0.0055836464075103,0.000104569235562124,-0.000446250494325895,-0.00178272125736134,-0.00247712344183304,-0.00299015516377743,-0.00509645707361761,-0.00414616542643431,-0.00373857688221957,-0.00543480571405253,-0.0074509958478135,-0.000337044170128031,-0.00782245587208719,-0.00367494863733997,-0.0027831668815308,-0.000699289969235739,-0.017917298194809,-0.00243486029337658,-0.000670742511341249,-0.00298804721131329,-0.00236826216131014,-2.1170603542231e-05,-0.0141015812359795,-0.0103461514116057,-0.00306507460724958,-0.010630166212072,-0.00478088691108258,-0.00119571429014709,-0.00147915232464335,-0.00521318090192491,-0.00208102246981667,-0.0031646305999824,-0.00214092912535691,-0.0124236576633057,-0.000871495153908164,0.000479480496021978,-0.00138092133902301,-0.000425003585601935,-0.00260379516347786,-9.02800097701828e-06,-0.0164209775682407,-0.00125056755223873,0.000274741961616698,-0.00349243640467867,-0.000583709827126633,0.198957121940127,-0.0047192921080681,-0.000226073289663287,-0.000441906884849352,9.93323068589902e-05,0.000235017818167371,-0.00578521602953153,-0.00124141432056479,1.56015123513598e-05,-0.00302318603686036,-0.00121180164428969,1.41749510715883e-05,-6.42130499652893e-05,-0.00506608426571553,0.000821265403669891
19:8630242:C:T,-0.00418086591571853,-0.00466919680046018,2.20877740915171e-05,-0.00400742887121996,4.28980561073544e-05,-0.00498073716080594,-0.000987511741259439,-0.00110850680191277,-0.00440847802864486,-0.00113739304564753,-0.00263057330044969,-0.00452041248496293,2.0467961396875e-05,-0.000309473430058382,3.3906339469425e-05,-1.48812358524708e-05,-0.00131733830109404,-0.00621371038469309,0.000169323161498092,-0.00157332086051198,-5.11261164799492e-05,9.37543464019086e-06,2.87357713295577e-05,-0.000957188964467726,-0.00579254775319527,-9.12739752383374e-05,1.46796391664594e-06,-0.00324430690486732,-7.45522085381367e-05,-5.74065339176144e-06,4.61469325063746e-06,-0.00400521838602685,-0.00171214117659524,-6.04831045381005e-05,-0.000948433409270422,0.00049487474586396,-0.000170640939447964,6.44395097717521e-05,-3.88573647702728e-05,-0.000996173850301041,-0.00160101546586322,-0.00872731859541886,-5.11261164799492e-05,6.08072769630041e-05,-0.0165483477458004,2.70479430177772e-05,-0.0047192921080681,0.0977751153079893,1.76536467915156e-05,-0.000186115492695649,2.0467961396875e-05,0.000164717443051465,-0.000163426702321168,-0.000110203483428606,-0.00113739304564753,-0.00128449256182428,-5.05532131720443e-05,-0.00112000690739045,-0.000120299352296627,-0.00162327601788803,-0.00130662101183088
19:8630873:G:C,-0.00748592031182138,2.45332611976679e-05,-9.00291225214289e-06,-0.000715918062115684,-0.00232349838833557,-0.00194954107194611,-0.00180297276827535,-0.013588744711361,-0.0112815381243294,-0.000126934064022421,-0.0102126481063589,-0.00319347599938125,5.67709610947986e-05,-0.00973892343975979,-1.87366125397048e-05,5.29300079676887e-06,-0.0144926283222082,1.07133244835467e-05,-9.23342042504771e-05,-9.38565691122051e-06,1.71783175053619e-05,-0.00492314490206613,-0.00258071447719121,-0.000715291870740487,-0.00574235246151744,-0.00150736875280355,-9.41710572615051e-05,-0.00342117253920593,-0.000831842776130465,-0.00220165967038088,-2.02291903139695e-06,-0.0144060451245402,-3.1878331891555e-05,1.93650321520522e-05,-2.2104882386742e-06,-0.000204819542003243,-3.27188960262959e-05,-2.85466732208306e-05,1.37085116476143e-05,3.03354556896451e-05,-0.00184852228601251,-0.000437218181814192,1.71783175053619e-05,-2.65689031602179e-05,-0.00033389604249745,-1.13664469001407e-05,-0.000226073289663287,1.76536467915156e-05,0.128006243106508,-0.00593021407741645,-8.24225665763123e-06,-0.000654760298901103,4.37215140722813e-05,-0.000192704732299376,1.16294134420158e-05,-0.00178431650960853,1.57596047971609e-05,-0.000257551455346672,-0.000509276287336213,-0.00223961410005913,-6.15953618927634e-05
19:8634279:C:G,-0.00042985688493502,0.000103784859199152,7.46579005257431e-05,-0.00417217176564311,-0.00222135073631424,-0.000981028745806967,-0.000763781937553887,-0.00250935910290018,-0.00119974408023804,-0.000119971334324731,-0.00272105561543423,-0.0063856911943736,7.02107751369141e-05,-0.000216530207096,-0.000708560261424296,-5.52310396475519e-05,-0.00420519653414608,-0.0027179482084625,-0.00186245431143739,-0.000505733423706189,-0.000182970878479516,-0.0059419669407399,9.29530606583739e-05,-0.00342318156232047,-0.000397631268622689,-0.000320400751784078,-0.00567924492771166,-0.000449444190504522,-0.000259173398819534,-3.16071805759321e-05,1.22923376384421e-05,0.000444583919524177,-0.00152697357349219,-0.00037463252374792,-0.00245360950341578,0.000494826131727244,0.000243280784927968,0.000221473555609641,-0.00013355239691748,-0.000334381851176069,-0.000491967953559325,-0.00402168554911508,-0.000182970878479516,0.000210932944139763,-0.00212932215523765,8.83015500301454e-05,-0.000441906884849352,-0.000186115492695649,-0.00593021407741645,0.0658469095083447,7.02107751369141e-05,0.00058643823044946,-0.000548228610881552,-0.000732098173844342,-0.000119971334324731,-7.72661049017742e-05,-0.000204939010764349,-0.000267992624713997,-0.000406793109213766,2.93425171120631e-05,0.00043570944158855
19:8634947:C:T,-0.000532388393375882,2.9645908089293e-05,-9.26729003491999e-06,-6.44631284769659e-05,-1.91007409684474e-05,7.65818123582562e-06,1.12240527760932e-05,-2.40045465913497e-05,-1.69557239884099e-05,1.30653618430898e-05,0.000190210878143304,-0.000520716938779309,-8.50887695591496e-06,0.000855404536307169,-1.48312311782917e-05,5.76990006351252e-06,1.79485126610146e-05,0.000260901322293172,-7.60873135643436e-05,-1.6507892884654e-05,1.9859055544913e-05,-4.36298639083788e-06,-1.23904191751123e-05,-4.93667696668254e-05,4.08631275297111e-05,3.50773622130873e-05,-0.000381631982825148,0.000218717143473768,2.90971600120926e-05,1.53015108761423e-06,-2.14350637772753e-06,-0.000216465011912526,-3.03362707194665e-05,-0.000393852883862067,1.241522503026e-05,-6.65133830102249e-05,-3.10970718473413e-05,-2.74904783204022e-05,1.55833532957672e-05,3.81469132699763e-05,0.000148442104055846,0.00034924667698899,1.98590555458011e-05,-2.57497253919325e-05,0.000375579171066676,-1.15959004727273e-05,9.93323068589902e-05,2.0467961396875e-05,-8.24225665763123e-06,7.02107751369141e-05,-0.00061694971698678,-7.36906083602662e-05,6.21601416161965e-05,4.18733513489755e-05,1.30653618430898e-05,0.00023482996384061,-0.000167186606796044,0.000196521027236329,4.65737659736121e-05,-5.12039849809298e-06,-5.42617537089285e-05
19:8636422:C:T,-0.000810311293552246,0.000245291926078472,-8.17610902661414e-05,-0.000567143202963472,-0.00527175068286478,-0.000759651012769424,-0.00192633748820725,-0.00264474750529864,-0.00201379232448673,0.000103926212367433,0.000170225745548258,-0.00481716999519222,-7.36906083602662e-05,-0.00789710396617682,-0.000141098756155422,4.39377897327731e-05,-0.00284236269193805,-0.00302803584480227,-0.000672994544747674,-0.000723412395217338,0.000157901074948619,-4.6920991482402e-05,-0.000115040027329094,-0.00558457852543537,0.000322434897071844,0.00028263767481107,-0.000160249785077227,-0.00466924053892992,0.000239047718872065,-2.2426365253736e-06,-2.30333161574947e-05,0.000944642324497202,-0.000334674980911664,-0.00435884419770094,-0.000685020385848389,-0.00198430860361842,-0.000279625359834945,-0.000241745439506502,0.000131647670801982,0.000318319523473498,-0.00526434528798703,-0.00832090471412616,0.000157901074948619,-0.000223493487785831,-0.00195139208368467,-0.00556672992609286,0.000235017818167371,0.000164717443051465,-0.000654760298901103,0.00058643823044946,-7.36906083602662e-05,0.0752601074352803,0.000519308245120698,-0.0043674505109772,0.000103926212367433,-0.00121747708691977,0.000111946742266333,0.000438157920198634,0.000390545130202646,-5.5081668918433e-05,-0.000475864945146398
19:8636977:G:A,-0.00105291860214862,0.000170200250346753,6.62627353396061e-05,-0.00399020125839478,-0.000649090192547774,-0.00108802779063932,-0.00323438624625894,-0.00973506460045925,-0.00279122804843102,-0.000277019423338132,-0.00103557202999127,-0.00613117977079991,6.21601416161965e-05,-0.00176516718449093,9.63083988425595e-05,-0.000913931439408877,-0.00299632074897538,-0.00194737857563521,0.000532962182859364,-0.000572174997762076,-0.000288474414822382,2.31675407729171e-05,-0.0054535697776954,-0.00141332852677944,-0.000405695023935948,-0.000281437788046013,-0.00145126840100307,-0.00367788604859598,-0.000228144729757851,-2.62285525769457e-05,1.13887673389712e-05,-0.00530505992753483,0.000196809544577903,-0.00241030801267605,-0.00109655011873233,-0.00063411369839983,0.000216346618693741,0.000196368484513876,-0.000117932805416388,0.000334319829071283,-0.00201947642171785,-0.000847874242707825,-0.00243546216611534,0.000186710902202236,-0.00762726866267904,7.88485572122966e-05,-0.00578521602953153,-0.000163426702321168,4.37215140722813e-05,-0.000548228610881552,6.21601416161965e-05,0.000519308245120698,0.0870834555437989,-0.000339965361296102,-0.000277019423338132,-0.00112161360737417,-0.00162885447629257,-0.00617036475074695,-0.000359134837813357,2.71839486849501e-05,0.000385880681388784
19:8637832:C:T,-0.00165870030988824,-0.000157803277526014,4.48994865349661e-05,0.00029559371581378,8.38385722934376e-05,-0.000392053777727774,-0.00416107351843475,-0.00376995258916724,-0.00208491303479708,-7.03170281255439e-05,-0.00197025246288973,-0.00157105886487807,4.18733513489755e-05,-0.00217177582122741,-0.0011985716429086,0.000403856969055205,-0.00166914423207132,-0.00320999385356657,0.000343371282739646,-0.00334752047990428,-0.000379751927461314,-0.000121682263587886,5.73264801664308e-05,-0.000735074670112468,0.000287937135053262,-0.0011029930828883,-0.00141541878730322,-0.00135817427164353,-0.000155698887121858,-0.00015435311512757,-0.000130595271153666,0.000152357477313902,-0.00162348319084327,-0.00328822702780052,-0.000694117967300123,-0.00169835045625799,0.000145271115974843,-0.00178513875090047,-8.02697202235692e-05,-0.000203506726579761,9.2060620787926e-05,-0.00525812335576159,-0.00010782950970345,0.000124231026418897,-0.00407654331470875,-0.00200700782233021,-0.00124141432056479,-0.000110203483428606,-0.000192704732299376,-0.000732098173844342,4.18733513489755e-05,-0.0043674505109772,-0.000339965361296102,0.065392718567777,-7.03170281255439e-05,-0.00200724895132876,-0.00138374855018064,-0.00174119805500395,-0.000171332465428442,-0.0015921508836092,0.000252094375381873
19:8638087:C:T,-0.0012874386645656,-4.84325002112485e-05,1.41281955743366e-05,-0.00136562076829705,-0.00178260490922355,-0.0029992678171622,-0.00332390757858647,-0.00616725030884879,-0.00179332211961292,-2.11877264923999e-05,-0.00324523518441211,-0.0065009913766545,1.30653618430898e-05,-0.000638099383613699,2.18719624323072e-05,-0.00298435828232613,-0.00119912554974899,-0.00164810945392535,0.000106832595291095,2.41870667165855e-05,-3.24889382410376e-05,6.18140114383436e-06,1.8486480030333e-05,-0.00153688360976911,-6.88296598445604e-05,-5.8232368073341e-05,0.000257154980821461,-0.00386703792101706,-4.76236352948689e-05,-3.33838332533531e-06,3.04404098727673e-06,0.000238505628646912,-0.00574665311289468,-0.00128472755575526,-8.6982584429407e-05,-0.00202680554691348,4.59046588838774e-05,4.10502918013478e-05,-2.48443839110379e-05,-0.00228371367134272,-0.00169560563647586,-0.00321877912267166,-0.00120152333676948,3.86929290598914e-05,-0.000431821357397943,1.73805530723214e-05,1.56015123513598e-05,-0.00113739304564753,1.16294134420158e-05,-0.000119971334324731,1.30653618430898e-05,0.000103926212367433,-0.000277019423338132,-7.03170281255439e-05,0.0607137593898912,-6.14863634940122e-06,-0.00143651252465204,-4.47197253254927e-05,-7.72719882666806e-05,7.24865562684585e-06,7.84794620107832e-05
19:8638827:C:T,-0.0156506025306173,-4.82563653418921e-05,-0.00155535671477303,-0.000681288064826369,-0.00131701437985488,-0.00143184652677242,-0.00468358446145434,-0.00287954871857199,-0.00455358198416755,-0.0023545465117234,-0.00318199658917173,-0.0115607138316145,-9.7265468026464e-05,-0.00429966210739341,-0.00300017222713223,-0.00921039789587841,-0.00360566065177448,-0.00363773881547624,0.000523180866811579,-1.23290991931313e-05,-0.00126356373632852,-6.60323207233304e-05,-0.000173281767824385,-0.00322049720975714,-0.00603561989765034,-0.000337073084802242,-0.00123672420882315,-0.00259717954296912,0.000294975447300949,-0.000240903699093131,-0.00260197615603097,-0.00583380380200804,-6.71562482050803e-05,-0.00042099830361586,-0.000766816974711926,-0.000480455322098727,-0.000518188532277364,-0.000917393294656677,0.000166495907543585,-0.000670698589383179,-0.000512959266748325,-0.00760661185908695,-0.00126356373632852,0.000367454025152369,0.00115773900963845,-0.000144684690241093,-0.00302318603686036,-0.00128449256182428,-0.00178431650960853,-7.72661049017742e-05,0.00023482996384061,-0.00121747708691977,-0.00112161360737417,-0.00200724895132876,-6.14863634940122e-06,0.12413924539198,5.35502931118259e-05,-0.00272690448822122,-0.000228600757167463,-7.77130531499637e-05,-0.00264475792454544
19:8639093:C:T,-0.00871643692205604,-0.000995642665087892,1.93841782802906e-05,-0.0003499328846015,-0.00536570701781791,-0.00244505208985668,-0.00515335610542866,-0.00596749792453632,-0.00136846807585789,-0.00315515713970882,-0.00404919932736547,-0.0018684452519131,1.79875912396099e-05,-0.00587653011953249,-0.000678287239936459,-0.00211302113942313,-0.0050410431541863,-0.00192963309856875,-9.57862505410745e-05,-0.00188283765405828,-0.00694024267547988,-0.00224000061364293,-2.09041822323286e-05,-0.000416285456775078,-0.0017390016995007,-9.19503791507736e-05,-0.00549596826677057,-0.00785796479506295,-7.36876384292984e-05,-5.11681802706221e-06,-0.00210366308771892,-0.00338710654060792,-0.00402524258791015,-0.000218045537383915,-0.0038282138524961,-0.000236906706094331,-0.00110203053913605,5.30869604871143e-05,8.52367968189327e-05,-0.000700534896781235,-0.00513909821568337,-0.000141403388468575,-0.000694655820158374,5.03382176564315e-05,-0.00592546983743469,-0.00193441642130399,-0.00121180164428969,-5.05532131720443e-05,1.57596047971609e-05,-0.000204939010764349,-0.000167186606796044,0.000111946742266333,-0.00162885447629257,-0.00138374855018064,-0.00143651252465204,5.35502931118259e-05,0.121158945803177,-0.00186158504587786,-0.000124640974356716,-0.00221832974531821,9.18596205918831e-05
19:8640516:C:T,-0.000979620632028944,-0.00544037997744162,0.000200523239853645,-0.00031189605915749,-0.00231755303583681,-0.00312641648378076,-0.00314141230449616,-0.00702498430139942,-0.00384262161087578,-0.00410743147637138,-0.00553264151532229,-0.00767864925012018,-0.000451228022170902,-0.0109953764016546,-0.00335113363854012,-0.00282869586681489,-0.00115436531665214,-0.023720037852764,-0.00440988409618681,-0.000976536697913311,-0.0045009341249127,-0.00219503630484219,3.85359517132144e-05,-0.0128478991232752,-0.00716518470164473,-0.00189328371872488,-0.0100190067440837,-0.0018597424126896,-0.00214986004444206,-0.00144590840400838,-0.00494327669183203,-0.00045225387507708,-0.00279439803203463,-0.00177962452499258,-0.0132791691628729,-0.00173932554750778,-0.000777881842861206,-0.00130051288953581,-0.000533272498528525,-0.00265543068987473,3.96967245301916e-05,-0.0148931912298806,-0.00537861009388596,0.000567452254464307,-0.00803751785176399,-0.000772125334618678,1.41749510715883e-05,-0.00112000690739045,-0.000257551455346672,-0.000267992624713997,0.000196521027236329,0.000438157920198634,-0.00617036475074695,-0.00174119805500395,-4.47197253254927e-05,-0.00272690448822122,-0.00186158504587786,0.208626425544867,5.10673381528548e-05,-0.00240163100999347,0.00122370949395023
19:8641238:C:T,-0.00299553399774322,-0.000170867719636369,4.98866549971666e-05,0.000342589894611223,9.27063899460734e-05,-5.46981943010394e-05,-0.000201937959306342,-0.00218831034929678,-0.00160951706807388,-7.72719882666806e-05,-0.00288873872415252,-0.00200234587962278,4.65737659736121e-05,-0.000680985380419941,7.41454748984793e-05,-3.51352627294688e-05,-0.000916210826014563,-0.000426287787739454,0.000401286755349339,8.14400558963868e-05,-0.0001178104065227,1.88329221000316e-05,6.3513370890611e-05,-0.00127856427231876,-0.000245967670716496,0.000800390846785071,-0.000883899779581476,0.000721231622633489,0.000126189498685925,-1.71101032666598e-05,9.25845221999566e-06,0.000338365738648427,0.000151359507825966,-0.00474560010054237,-0.00136116039591805,0.000336820202731403,0.000163647966780367,-0.00748765800206552,-8.78070194483271e-05,-0.000218886395233042,-0.00202049470562393,-0.00502381826759013,-0.0001178104065227,0.000139967245851302,-6.06881099933787e-05,-0.000972105675124624,-6.42130499652893e-05,-0.000120299352296627,-0.000509276287336213,-0.000406793109213766,4.65737659736121e-05,0.000390545130202646,-0.000359134837813357,-0.000171332465428442,-7.72719882666806e-05,-0.000228600757167463,-0.000124640974356716,5.10673381528548e-05,0.0361903118936402,2.20974504721028e-05,0.000289983324349485
19:8641357:A:G,-0.000244313033798349,1.52638462678212e-05,-5.58744881473672e-06,-0.00483767096359156,-0.00185932879249862,4.40850072713772e-06,-0.00776673871878408,-0.00161622794574345,-0.000538335338636564,-0.00173484328687667,-0.00506336993917422,-0.00287272030961194,-5.12039849809298e-06,-0.00287765212883428,-9.0950130120504e-06,3.3058549675502e-06,-3.43261912778559e-05,-0.00297639126811067,-5.72693396883039e-05,-1.01799920280143e-05,-0.00168869339759681,-2.55038031049537e-06,-7.53871917336113e-06,-0.000539544808725978,-0.00263547379548967,1.76410536303351e-05,-0.00869991724267294,-0.00189446541867611,-0.00332536183250198,-0.00224007824088979,-1.24196394946097e-06,-0.00426889512363626,-1.96803315803962e-05,-0.00387188766882929,-0.000555185994871366,-0.00167839119674884,-2.02768427026712e-05,-1.77176378839405e-05,8.52470748746725e-06,1.88666829377127e-05,-0.00083343959585136,-0.00263533693709483,-0.00168869339759681,-1.65036780046535e-05,-0.000951597717843811,-7.03805163926319e-06,-0.00506608426571553,-0.00162327601788803,-0.00223961410005913,2.93425171120631e-05,-5.12039849809298e-06,-5.5081668918433e-05,2.71839486849501e-05,-0.0015921508836092,7.24865562684585e-06,-7.77130531499637e-05,-0.00221832974531821,-0.00240163100999347,2.20974504721028e-05,0.0852720311413053,-3.82331328196983e-05
19:8642956:C:A,0.000297374021188901,0.000182935595138822,-6.74306244121681e-05,-0.000416160102313157,-0.00567736439985733,3.7318244989315e-05,-0.00251519265286948,-0.00904146755606483,-0.000652069642985253,7.84794620107832e-05,-0.00216990769595871,-0.00710057231261096,-5.42617537089285e-05,-0.00305302676240338,-0.000101167544871217,3.36453839233641e-05,-0.00437242391485526,-0.00289144444047551,0.000507938764890525,-0.000113632443651035,-0.00116312805183494,-3.25710102719867e-05,-8.30409303915758e-05,-0.00290276881299523,-0.000979146162189082,0.000212470802162024,-0.00118862613219761,-0.00650037350606159,0.000178664699247655,1.69883024003781e-06,-1.59923408853402e-05,-0.0045843470267446,-0.000206958014885572,-0.000898559396555143,-0.0116850270891309,-0.000788733614684567,0.000113244393643797,-0.0001772826948363,9.76020113272469e-05,0.000236747005533999,-0.00119167170622614,0.000395470595710101,-0.00116312805183671,0.00391390801885727,-0.00437436312788986,-7.7145383598598e-05,0.000821265403669891,-0.00130662101183088,-6.15953618927634e-05,0.00043570944158855,-5.42617537089285e-05,-0.000475864945146398,0.000385880681388784,0.000252094375381873,7.84794620107832e-05,-0.00264475792454544,9.18596205918831e-05,0.00122370949395023,0.000289983324349485,-3.82331328196983e-05,0.0709538393984017
