"","17:27400484:G:A","17:27404172:C:T","17:27404749:C:T","17:27415263:A:G","17:27415361:C:T","17:27421490:C:T","17:27421541:A:G","17:27423201:T:C","17:27423498:G:A","17:27424007:G:T","17:27425132:C:T","17:27426343:T:C","17:27427838:C:G","17:27428553:G:T","17:27430290:T:C","17:27430853:A:G","17:27433403:G:A","17:27436606:T:C","17:27444844:C:T","17:27445576:C:T","17:27445705:G:A","17:27449966:G:A","17:27453984:G:A","17:27455297:C:T","17:27456255:G:C","17:27458759:C:T","17:27463464:T:C","17:27463767:C:G","17:27467379:A:G","17:27476124:A:G","17:27476364:A:G","17:27476583:C:G","17:27477307:C:G","17:27477938:T:C","17:27480495:C:G","17:27486280:T:C","17:27486673:G:A","17:27491082:A:G","17:27498049:T:C","17:27499608:C:T","17:27500496:C:T","17:27501415:C:T","17:27502756:G:A","17:27502835:T:C","17:27503346:G:A","17:27504563:G:A","17:27506558:A:G","17:27507322:G:C"
"17:27400484:G:A",0.0486348047729863,-0.00134213090518465,6.13837255807326e-05,-0.0036415777247587,-9.95665979601768e-05,-0.00591951309381145,-0.00175408087733153,-6.83633102198655e-05,6.13837255807326e-05,-0.000354332078249975,0.00010303476485074,-0.000205583811386134,0.000128470649249479,5.77808517698841e-05,3.03875849292368e-05,-0.000113254675812691,-0.000586587889082058,-0.00457990512573314,-0.00531112913951493,-9.95665979601768e-05,0.000178530470313021,9.97340672173053e-05,-0.000214291710747716,-1.5991253543568e-05,-0.000516761818558198,-0.00175408087733153,-0.00139897164975888,0.000167125444598959,-0.00595007325149677,6.84514322761842e-05,-0.00263718589548478,6.13837255807326e-05,0.000178530470313021,0.00170818465712941,-0.00380252384023549,-0.00147926177305635,-0.00421811109721393,-0.000307811098149813,6.13837255807326e-05,-0.000214291710747716,0.000134765934293846,0.000178530470313021,-0.00344816242109625,-0.00147926177305635,-5.50057481696342e-05,6.49402918035946e-05,-0.00010361792056468,-0.000307811098149813
"17:27404172:C:T",-0.00134213090518465,0.0575686147043766,2.77504427659281e-05,-0.000502429002184002,-0.00389870173609808,-0.000895581800742562,-0.000980468651219368,-0.00362976520525748,2.77504427659281e-05,-0.00143568913874592,4.54146392074861e-05,0.000103748758604638,-0.00147447572959347,-0.00242062988392266,1.38739405182164e-05,-5.1438102341983e-05,-0.00329225426222557,-0.0021388021704265,-0.00188335087721558,-0.00389870173609808,7.63714371263546e-05,4.41658016478996e-05,-6.63558617031157e-06,-6.63558617119975e-06,-0.00284107644884202,-0.000980468651219368,6.7045522166076e-05,-0.00136087662466533,-0.00220690679042157,3.05146853207816e-05,1.08134557610384e-05,2.77504427659281e-05,7.63714371263546e-05,-0.00138426924564605,-0.00375344938502087,-0.00361231123558703,-0.00312298881768491,-0.000148178584556291,2.77504427659281e-05,-6.63558617031157e-06,5.89220393116818e-05,7.63714371263546e-05,-0.00420171825869531,-0.00361231123558703,-2.45873045505718e-05,2.91429263903353e-05,-0.00305072542894713,-0.000148178584556291
"17:27404749:C:T",6.13837255807326e-05,2.77504427659281e-05,0.0337805475539605,-0.00312860566974571,-0.0027539708611668,8.29686292327381e-05,-0.00123000601035361,-0.00198205933428142,0.000362311375188717,4.84043411752566e-05,-3.51275126790895e-05,5.87759087489204e-05,-4.51442641207223e-05,-2.02496379486661e-05,-0.00388253136143035,3.28459265155345e-05,-3.34442985936434e-05,-3.87509092085736e-05,-2.88366443950139e-05,-0.0027539708611668,-0.00066356979580906,-0.000975245290055327,4.07925330581094e-06,4.07925330581094e-06,-0.000118205825449635,-0.00123000601035361,9.47069090146968e-05,-5.90097938708567e-05,5.35589467620667e-06,-0.00446417444395042,-0.00147872793418191,-0.00299526764701241,-0.00066356979580906,7.83321149704364e-05,-6.90426731262406e-05,2.00759640200943e-06,7.98374824420023e-05,8.53375517095856e-05,-0.00299526764701241,4.07925330581094e-06,-4.68060681440008e-05,-0.00066356979580906,-6.14545641548503e-05,2.00759640200943e-06,1.62856359535724e-05,-2.21160985756086e-05,-0.00247770324796104,8.53375517095856e-05
"17:27415263:A:G",-0.0036415777247587,-0.000502429002184002,-0.00312860566974571,0.073096810003944,-0.00173452350005299,-0.00309241647061853,-0.00447951941219848,2.38537701857666e-05,-0.00312860566974571,-0.00390653827952381,-4.51131516063796e-05,6.887179193793e-05,-0.00114173767486747,-2.57648946337952e-05,-1.30608217103756e-05,-0.00187383428196064,-0.00261250621995135,-0.00426114763202712,-3.70535100042702e-05,-0.00173452350005299,-8.12788287403166e-05,-0.000344884383905786,4.98716398489307e-06,4.98716398400489e-06,-0.00437082820739931,-0.00447951941219848,-0.00149231743272615,-0.00106242237639886,6.31204993428724e-06,-2.9287990998661e-05,-1.06267756878609e-05,-0.000204612087069123,-8.12788287403166e-05,-0.0036151177847934,-0.00499322076107367,-0.000289458517593211,-0.00238777319853511,-0.00165079590478534,-0.000204612087069123,4.98716398489307e-06,-0.00345492729381469,-8.12788287403166e-05,-0.00456584043512631,-0.000289458517593211,-0.0025201972612976,-2.81244860396157e-05,3.68056127983962e-05,-0.00165079590478534
"17:27415361:C:T",-9.95665979601768e-05,-0.00389870173609808,-0.0027539708611668,-0.00173452350005299,0.0993220725729587,-0.000207171783038973,-0.0113994981745948,-2.82706649166187e-05,-0.0027539708611668,-7.55583924112457e-05,-0.00125259345342688,-0.00289024491421586,-0.00128251697594184,-0.00258317205784131,1.2501461241321e-05,-0.00572825386797948,-0.000936921065505913,-0.000846898857913558,-0.00236438280518669,0.000629280236881691,6.40969884138087e-05,-0.000224523334254378,-0.0018401731621589,-0.00562877011784035,-0.00103349561266031,-0.0113994981745948,-0.00548891639965277,-0.001171840378559,-0.00054247444436939,2.70296223296995e-05,-0.0055933255563998,-0.000114974942540869,6.40969884138087e-05,-0.000134854950058383,-0.00199341176808865,-0.00431353906533172,-0.000584324777540779,-0.00137871049019545,-0.000114974942540869,-0.0018401731621589,5.06040078001035e-05,6.40969884138087e-05,-0.00364559085967642,-0.00431353906533172,-0.00397565292510738,-0.00264153094760378,-4.45567301747829e-05,-0.00137871049019545
"17:27421490:C:T",-0.00591951309381145,-0.000895581800742562,8.29686292327381e-05,-0.00309241647061853,-0.000207171783038973,0.08589758803847,-0.00571906312995996,-0.00549405073075615,8.29686292327381e-05,-0.00623225987347986,-0.000879008718873919,-0.00286631560236472,-0.000120850451460264,-1.58338426956561e-05,4.16832118732557e-05,-0.00299898330948789,-0.00923848710149633,-0.00187984291896504,-0.00158263517925583,-0.000207171783038973,-0.000588187414633623,0.000132743745035135,-0.000102087772606119,-2.43978735605666e-05,-0.00242732762137576,-0.00571906312995996,-0.00145353655636971,-0.000160447961895294,-5.10172891843297e-05,9.28204446690728e-05,-0.00459722444820709,8.29686292327381e-05,-0.000588187414633623,-0.00747594611945512,0.000461335301701116,-0.0015747385035878,-0.00178259930124947,-0.00251290129371018,8.29686292327381e-05,-0.000102087772606119,0.000175966074412948,-0.000588187414633623,0.000237507977443485,-0.0015747385035878,-0.00149169913429503,9.12180068990409e-06,-0.0047041785019184,-0.00251290129371018
"17:27421541:A:G",-0.00175408087733153,-0.000980468651219368,-0.00123000601035361,-0.00447951941219848,-0.0113994981745948,-0.00571906312995996,0.0758659874025991,6.8752455523402e-05,-0.00123000601035361,-0.000622235749425215,-0.000133402083561052,0.000212126942386703,-0.000174072427338245,-7.88961196134252e-05,-0.00132127894916945,-0.00204650507547299,-0.00146338014669878,-0.00681487311757145,-0.000114789796855419,-0.0113994981745948,-0.000770045298874145,-0.00108304920892976,1.27682656838601e-05,-0.00175800090177791,-0.00151079338710636,0.00116482191312173,-0.00202891664343863,-0.000226522781882288,-0.00152005614124118,-0.000974599445909163,-3.38756872855228e-05,-0.00123000601035361,-0.000770045298874145,-0.0016904243917315,-0.00126419091386376,-0.0013147785291423,-0.00233488583938612,-0.00149260164284915,-0.00123000601035361,1.27682656838601e-05,-0.000178840642558242,-0.000770045298874145,-0.00147010416011861,-0.0013147785291423,5.82161026905226e-05,-8.45441570591632e-05,0.000109845122223895,-0.00149260164284915
"17:27423201:T:C",-6.83633102198655e-05,-0.00362976520525748,-0.00198205933428142,2.38537701857666e-05,-2.82706649166187e-05,-0.00549405073075615,6.8752455523402e-05,0.036338670029203,-0.00198205933428142,-5.29050963278266e-05,3.22088654485242e-05,-6.49337380878023e-05,4.03938332382836e-05,1.8624323292471e-05,-0.00019724632100182,-3.50096469450278e-05,-0.000550890307761343,-0.00124710861987687,2.58026415966839e-05,-2.82706649166187e-05,5.48214426769889e-05,-0.00177529628375961,-4.50388660055978e-06,-4.50388659878342e-06,-0.000532333700171694,6.8752455523402e-05,-0.0032640887243458,5.19283347895083e-05,-7.52352861788097e-06,-0.000504329575335305,7.65722661366652e-06,-0.00198205933428142,5.48214426769889e-05,-9.0071677928627e-05,-0.000621037722637219,-0.00405117282086032,-0.00176619989171822,-9.86746763942392e-05,-0.00198205933428142,-4.50388660055978e-06,4.2032777231249e-05,5.48214426769889e-05,-0.000602299327951528,-0.00405117282086032,-1.68757574883216e-05,2.05695227419866e-05,-8.53960759625849e-05,-9.86746763942392e-05
"17:27423498:G:A",6.13837255807326e-05,2.77504427659281e-05,0.000362311375188717,-0.00312860566974571,-0.0027539708611668,8.29686292327381e-05,-0.00123000601035361,-0.00198205933428142,0.0337805475539605,4.84043411752566e-05,-3.51275126790895e-05,5.87759087489204e-05,-4.51442641207223e-05,-2.02496379486661e-05,-0.00388253136143035,3.28459265155345e-05,-3.34442985936434e-05,-3.87509092085736e-05,-2.88366443950139e-05,-0.0027539708611668,-0.00066356979580906,-0.000975245290055327,4.07925330581094e-06,4.07925330581094e-06,-0.000118205825449635,-0.00123000601035361,9.47069090146968e-05,-5.90097938708567e-05,5.35589467620667e-06,-0.00446417444395042,-0.00147872793418191,-0.00299526764701241,-0.00066356979580906,7.83321149704364e-05,-6.90426731262406e-05,2.00759640200943e-06,7.98374824420023e-05,8.53375517095856e-05,-0.00299526764701241,4.07925330581094e-06,-4.68060681440008e-05,-0.00066356979580906,-6.14545641548503e-05,2.00759640200943e-06,1.62856359535724e-05,-2.21160985756086e-05,-0.00247770324796104,8.53375517095856e-05
"17:27424007:G:T",-0.000354332078249975,-0.00143568913874592,4.84043411752566e-05,-0.00390653827952381,-7.55583924112457e-05,-0.00623225987347986,-0.000622235749425215,-5.29050963278266e-05,4.84043411752566e-05,0.0503681285815438,8.07540931146988e-05,-0.000160858990299495,0.000100941628349283,4.56983942260791e-05,2.39873398353296e-05,-8.81348887302735e-05,-0.00105788719949151,-0.00490543630631812,-0.00500828893621463,-7.55583924112457e-05,0.000139342205190296,7.82880578586997e-05,-0.000163476112829741,-1.21142025708565e-05,-0.000649215532145586,-0.000622235749425215,-0.00143819856254357,0.000130918791843015,-0.00562154090220979,5.3711308496851e-05,-0.00248663501474677,4.84043411752566e-05,0.000139342205190296,0.00104792814445265,-0.00487738145333028,-0.00159064738073056,-0.00442824888771209,-0.000241656934875323,4.84043411752566e-05,-0.000163476112829741,0.000105620529075701,0.000139342205190296,-0.00447237275077761,-0.00159064738073056,-4.27385781245349e-05,5.10750870077459e-05,-8.07701239891045e-05,-0.000241656934875323
"17:27425132:C:T",0.00010303476485074,4.54146392074861e-05,-3.51275126790895e-05,-4.51131516063796e-05,-0.00125259345342688,-0.000879008718873919,-0.000133402083561052,3.22088654485242e-05,-3.51275126790895e-05,8.07540931146988e-05,0.0225631013230876,-0.00220891618248409,-7.42391192538605e-05,-3.36625222461251e-05,-1.724452661378e-05,5.44624246803238e-05,-0.000243427460043577,-0.00757232540053199,-4.80352940135376e-05,-0.00125259345342688,-0.000101074350635777,-5.64139303884659e-05,6.50084938591533e-06,6.50084938680351e-06,-0.000109421055423553,-0.000133402083561052,0.000160391360776835,-9.65201159441875e-05,7.67039882987319e-06,-3.80097943528668e-05,-1.41574725454063e-05,-3.51275126790895e-05,-0.000101074350635777,0.000132290312459205,-0.000513211862605445,2.34347838645732e-06,-0.00673587850685831,0.000144844580705517,-3.51275126790895e-05,6.50084938591533e-06,-7.67748250760647e-05,-0.000101074350635777,-0.000456753671023158,2.34347838645732e-06,2.68520252788562e-05,-0.00113586201905047,5.06409314580125e-05,0.000144844580705517
"17:27426343:T:C",-0.000205583811386134,0.000103748758604638,5.87759087489204e-05,6.887179193793e-05,-0.00289024491421586,-0.00286631560236472,0.000212126942386703,-6.49337380878023e-05,5.87759087489204e-05,-0.000160858990299495,-0.00220891618248409,0.0349462534175315,-0.00222468303128043,5.53527339421933e-05,2.90763941857008e-05,-0.00010755311317201,0.000307255975084963,-0.000139559476498796,-0.00162258979461072,-0.00289024491421674,0.000171243670008536,9.55232021375707e-05,-1.5147512002045e-05,-1.5147512002045e-05,-0.00331377674122235,0.000212126942386703,-5.04890236845412e-05,-0.00209006994795669,-0.00135562742836726,6.54938419222262e-05,2.1884457298782e-05,5.87759087489204e-05,0.000171243670008536,-0.000268661015920379,-0.00515765926826095,-5.44649987412882e-05,6.98949157813544e-05,-0.000830374451536997,5.87759087489204e-05,-1.5147512002045e-05,-0.002247120514693,0.000171243670008536,-0.00516780402706374,-5.44649987412882e-05,-5.23164371326601e-05,6.21560098519325e-05,-9.84706185924722e-05,-0.000830374451536997
"17:27427838:C:G",0.000128470649249479,-0.00147447572959347,-4.51442641207223e-05,-0.00114173767486747,-0.00128251697594184,-0.000120850451460264,-0.000174072427338245,4.03938332382836e-05,-4.51442641207223e-05,0.000100941628349283,-7.42391192538605e-05,-0.00222468303128043,0.0412747787308576,-0.00104250053604105,-2.21022633368761e-05,6.83029577661642e-05,-0.000116251390912314,-0.00279700827717111,-0.00110220214197287,-0.00128251697594184,-0.00523182966891778,-7.25715984817299e-05,8.03379522373859e-06,8.03379522285042e-06,-3.05956759119042e-05,-0.000174072427338245,-0.00149210200484262,0.00246067587992904,-0.00130496213690634,-4.87207263155653e-05,-0.00354990095106356,-4.51442641207223e-05,-0.00523182966891778,-0.00232208001272038,-0.000420598080351553,-0.0013015284242055,-0.00314990695714457,0.000179613135334655,-4.51442641207223e-05,8.03379522373859e-06,-9.90217482925715e-05,-0.00523182966891778,-0.000508559288483035,-0.0013015284242055,3.38017912975275e-05,-4.69420681197263e-05,6.3620455703628e-05,0.000179613135334655
"17:27428553:G:T",5.77808517698841e-05,-0.00242062988392266,-2.02496379486661e-05,-2.57648946337952e-05,-0.00258317205784131,-1.58338426956561e-05,-7.88961196134252e-05,1.8624323292471e-05,-2.02496379486661e-05,4.56983942260791e-05,-3.36625222461251e-05,5.53527339421933e-05,-0.00104250053604105,0.0347322462550723,-9.88868708784452e-06,3.11119483376032e-05,-0.00262980775305532,-0.00237889846709738,-2.75851737709942e-05,-0.00258317205784131,-0.000727825710750807,-3.28211634164077e-05,3.89390755106689e-06,-0.00270969449558933,-0.00139722084505056,-7.88961196134252e-05,-1.6113300345566e-05,-0.000958294941988846,5.14846264199065e-06,-2.20281329079697e-05,-8.01303759523364e-06,-2.02496379486661e-05,-0.000727825710750807,7.34494322243151e-05,-0.00147949022722127,-0.00266514517814187,0.000107180455452216,-0.00265757487623119,-2.02496379486661e-05,3.89390755106689e-06,-4.49394442805229e-05,-0.000727825710750807,-0.00167037925593583,-0.00266514517814187,1.54763663440249e-05,-2.11433663164229e-05,2.89050804962443e-05,-0.00265757487623119
"17:27430290:T:C",3.03875849292368e-05,1.38739405182164e-05,-0.00388253136143035,-1.30608217103756e-05,1.2501461241321e-05,4.16832118732557e-05,-0.00132127894916945,-0.00019724632100182,-0.00388253136143035,2.39873398353296e-05,-1.724452661378e-05,2.90763941857008e-05,-2.21022633368761e-05,-9.88868708784452e-06,0.0295968136763989,1.62875406939378e-05,-0.000391900949924029,-0.00179022985226052,-1.40255526721589e-05,1.2501461241321e-05,-3.04868067013686e-05,-0.00417607844115331,2.0689932291873e-06,2.0689932291873e-06,-0.00147730859678319,-0.00132127894916945,4.69905551243599e-05,-2.89230820804676e-05,2.91456467049755e-06,-0.00108607926728954,-4.07845553240804e-06,-0.00388253136143035,-3.04868067013686e-05,3.8781041134861e-05,-3.8917552132034e-05,1.21480571291244e-06,-0.00203375745332934,4.21866659063852e-05,-0.00388253136143035,2.0689932291873e-06,-2.29563792704113e-05,-3.04868067013686e-05,-5.34479518670139e-05,1.21480571291244e-06,8.07742992225968e-06,-1.08405650456334e-05,-0.000314655641440176,4.21866659063852e-05
"17:27430853:A:G",-0.000113254675812691,-5.1438102341983e-05,3.28459265155345e-05,-0.00187383428196064,-0.00572825386797948,-0.00299898330948789,-0.00204650507547299,-3.50096469450278e-05,3.28459265155345e-05,-8.81348887302735e-05,5.44624246803238e-05,-0.00010755311317201,6.83029577661642e-05,3.11119483376032e-05,1.62875406939378e-05,0.0599461350423738,-0.00188192540276599,-0.000883799052417977,-0.00229097597985373,-0.00572825386797948,9.36802217701427e-05,5.28884177724009e-05,-7.8174122313257e-06,-0.00285271593006176,-0.00911341377585106,-0.00204650507547299,-0.000187085892714656,8.83558680708774e-05,-0.00168623233174614,3.62469355534856e-05,1.26093372081471e-05,3.28459265155345e-05,9.36802217701427e-05,-0.000148444189790986,-0.00978560454494026,-7.3236209612304e-06,-0.000571504209277762,-0.000161891932870972,3.28459265155345e-05,-7.8174122313257e-06,7.12754447942388e-05,9.36802217701427e-05,-0.0101688547804626,-7.3236209612304e-06,-2.84304647291123e-05,3.4557445749428e-05,-5.38793422784067e-05,-0.000161891932870972
"17:27433403:G:A",-0.000586587889082058,-0.00329225426222557,-3.34442985936434e-05,-0.00261250621995135,-0.000936921065505913,-0.00923848710149633,-0.00146338014669878,-0.000550890307761343,-3.34442985936434e-05,-0.00105788719949151,-0.000243427460043577,0.000307255975084963,-0.000116251390912314,-0.00262980775305532,-0.000391900949924029,-0.00188192540276599,0.148596446278082,-0.00335019299960093,-0.000276535955460844,-0.000936921065505913,-0.000333392683687705,-0.000290669723634451,-0.00242868990776657,-0.0023585570342215,-0.0130056446462756,-0.00146338014669878,-0.0131093224340528,-2.69154892049706e-05,-2.77569050211035e-05,-0.00089972983356823,-0.00105483852397104,-0.0008353795248075,-0.000333392683687705,-0.00343736493501812,-0.0101370355999899,-0.00335633673002134,-0.00552476854053552,-0.0160115560148739,-0.0008353795248075,-0.00242868990776657,-0.00171503126622774,-0.000333392683687705,-0.0122038032097147,-0.00335633673002134,-0.0075020864259443,-0.000132547444249731,-0.000117381922168036,-0.0160115560148739
"17:27436606:T:C",-0.00457990512573314,-0.0021388021704265,-3.87509092085736e-05,-0.00426114763202712,-0.000846898857913558,-0.00187984291896504,-0.00681487311757145,-0.00124710861987687,-3.87509092085736e-05,-0.00490543630631812,-0.00757232540053199,-0.000139559476498796,-0.00279700827717111,-0.00237889846709738,-0.00179022985226052,-0.000883799052417977,-0.00335019299960093,0.152763166143552,-0.000736351774791366,-0.000846898857913558,1.63501843175595e-05,-0.000105649563431065,-2.8912405450221e-05,-0.00235973053003047,-0.0180607508084769,-0.00681487311757145,-0.00597769008865967,-0.00252795511050241,-0.000332633062828158,-0.00133571653140407,-0.0019315950547254,-3.87509092085736e-05,1.63501843175595e-05,-0.00463551701495746,-0.0136145149989368,-0.00280232143080017,-0.00636107205212522,-0.00294526860659516,-3.87509092085736e-05,-2.8912405450221e-05,-0.00202020947513404,1.63501843175595e-05,-0.0113271580110319,-0.00280232143080017,-0.00838700312258744,-0.0059912327255347,-0.00215162799892621,-0.00294526860659516
"17:27444844:C:T",-0.00531112913951493,-0.00188335087721558,-2.88366443950139e-05,-3.70535100042702e-05,-0.00236438280518669,-0.00158263517925583,-0.000114789796855419,2.58026415966839e-05,-2.88366443950139e-05,-0.00500828893621463,-4.80352940135376e-05,-0.00162258979461072,-0.00110220214197287,-2.75851737709942e-05,-1.40255526721589e-05,-0.00229097597985373,-0.000276535955460844,-0.000736351774791366,0.0430238211013267,-0.00236438280518669,-8.58577441587016e-05,-4.68639813870908e-05,5.34493958337379e-06,5.34493958515014e-06,0.000138105747524708,-0.000114789796855419,-0.00196089146127765,-0.00102380752001707,-0.000702756942162708,-3.13032479235531e-05,-1.14370792099194e-05,-2.88366443950139e-05,-8.58577441587016e-05,-0.00506569374543542,-0.00186629962833607,-0.00168975860517229,-0.0012490630642441,0.000108058139786316,-2.88366443950139e-05,5.34493958337379e-06,-0.00245115407345065,-8.58577441587016e-05,-0.00039053300403058,-0.00168975860517229,2.15194366877114e-05,-3.0075946105157e-05,4.00212019560087e-05,0.000108058139786316
"17:27445576:C:T",-9.95665979601768e-05,-0.00389870173609808,-0.0027539708611668,-0.00173452350005299,0.000629280236881691,-0.000207171783038973,-0.0113994981745948,-2.82706649166187e-05,-0.0027539708611668,-7.55583924112457e-05,-0.00125259345342688,-0.00289024491421674,-0.00128251697594184,-0.00258317205784131,1.2501461241321e-05,-0.00572825386797948,-0.000936921065505913,-0.000846898857913558,-0.00236438280518669,0.0993220725729596,6.40969884138087e-05,-0.000224523334254378,-0.0018401731621589,-0.00562877011784035,-0.00103349561266031,-0.0113994981745948,-0.00548891639965277,-0.001171840378559,-0.00054247444436939,2.70296223296995e-05,-0.0055933255563998,-0.000114974942540869,6.40969884138087e-05,-0.000134854950058383,-0.00199341176808865,-0.00431353906533172,-0.000584324777540779,-0.00137871049019545,-0.000114974942540869,-0.0018401731621589,5.06040078001035e-05,6.40969884138087e-05,-0.00364559085967642,-0.00431353906533172,-0.00397565292510738,-0.00264153094760378,-4.45567301747829e-05,-0.00137871049019545
"17:27445705:G:A",0.000178530470313021,7.63714371263546e-05,-0.00066356979580906,-8.12788287403166e-05,6.40969884138087e-05,-0.000588187414633623,-0.000770045298874145,5.48214426769889e-05,-0.00066356979580906,0.000139342205190296,-0.000101074350635777,0.000171243670008536,-0.00523182966891778,-0.000727825710750807,-3.04868067013686e-05,9.36802217701427e-05,-0.000333392683687705,1.63501843175595e-05,-8.58577441587016e-05,6.40969884138087e-05,0.0233307378867416,-0.000505239677012881,-0.00081271786687509,1.04920334713654e-05,-0.00561474495630954,-0.000770045298874145,0.000276973984205675,-0.00544270664839441,9.43940181397096e-06,-6.65979225180635e-05,-2.55490999716557e-05,-0.00066356979580906,0.00281163344905,0.000229570470365204,-0.00296206864875348,8.88497110551612e-07,0.000116202742010962,0.000252636568211173,-0.00066356979580906,-0.00081271786687509,-0.000485159025695125,0.00281163344905,-0.00292963007335079,8.88497110551612e-07,4.60940729460901e-05,-6.4329526570539e-05,8.74030730084741e-05,0.000252636568211173
"17:27449966:G:A",9.97340672173053e-05,4.41658016478996e-05,-0.000975245290055327,-0.000344884383905786,-0.000224523334254378,0.000132743745035135,-0.00108304920892976,-0.00177529628375961,-0.000975245290055327,7.82880578586997e-05,-5.64139303884659e-05,9.55232021375707e-05,-7.25715984817299e-05,-3.28211634164077e-05,-0.00417607844115331,5.28884177724009e-05,-0.000290669723634451,-0.000105649563431065,-4.68639813870908e-05,-0.000224523334254378,-0.000505239677012881,0.0231554825707292,6.34432544543984e-06,6.34432544455166e-06,-0.000452729822464804,-0.00108304920892976,0.000154727438165914,-9.44785951526583e-05,7.54496427557427e-06,-0.00476536154242524,-0.00128905439994309,-0.000975245290055327,-0.000505239677012881,0.000127810455456512,-0.000264979738245685,2.3451902801952e-06,0.000104440087208779,0.000139789227635134,-0.000975245290055327,6.34432544543984e-06,-7.50686557946523e-05,-0.000505239677012881,-0.000208225552060348,2.3451902801952e-06,2.61194881687743e-05,-3.56779031882581e-05,-0.00226409955137896,0.000139789227635134
"17:27453984:G:A",-0.000214291710747716,-6.63558617031157e-06,4.07925330581094e-06,4.98716398489307e-06,-0.0018401731621589,-0.000102087772606119,1.27682656838601e-05,-4.50388660055978e-06,4.07925330581094e-06,-0.000163476112829741,6.50084938591533e-06,-1.5147512002045e-05,8.03379522373859e-06,3.89390755106689e-06,2.0689932291873e-06,-7.8174122313257e-06,-0.00242868990776657,-2.8912405450221e-05,5.34493958337379e-06,-0.0018401731621589,-0.00081271786687509,6.34432544543984e-06,0.0115867563317735,-9.29751417189095e-07,-0.00222433397740307,1.27682656838601e-05,-2.77945844056049e-05,1.00378143166324e-05,-1.43747810010808e-06,4.44042057790028e-06,1.65363661164264e-06,4.07925330581094e-06,-0.00081271786687509,-0.00019694966147199,-0.00149515521974752,-6.57969823514293e-07,-9.50995454624959e-05,-2.39635413068484e-05,4.07925330581094e-06,0.00215033271274567,8.31103193466021e-06,-0.00081271786687509,-0.000652969949363147,-6.57969823514293e-07,-3.66819194397294e-06,4.26139990672425e-06,-7.17725393784008e-06,-2.39635413068484e-05
"17:27455297:C:T",-1.5991253543568e-05,-6.63558617119975e-06,4.07925330581094e-06,4.98716398400489e-06,-0.00562877011784035,-2.43978735605666e-05,-0.00175800090177791,-4.50388659878342e-06,4.07925330581094e-06,-1.21142025708565e-05,6.50084938680351e-06,-1.5147512002045e-05,8.03379522285042e-06,-0.00270969449558933,2.0689932291873e-06,-0.00285271593006176,-0.0023585570342215,-0.00235973053003047,5.34493958515014e-06,-0.00562877011784035,1.04920334713654e-05,6.34432544455166e-06,-9.29751417189095e-07,0.0406438653787671,-0.00124690488270929,-0.00175800090177791,-0.00177468706868744,1.00378143166324e-05,-0.00221683324840161,4.44042057790028e-06,-0.00256549601132328,4.07925330581094e-06,1.04920334713654e-05,-2.15969629149271e-05,-0.002412460936422,-6.57969823514293e-07,-8.06223796114836e-05,-0.00137063333214815,4.07925330581094e-06,-9.29751417189095e-07,8.31103193466021e-06,1.04920334713654e-05,-0.00254506983967762,-6.57969823514293e-07,-3.66819194308476e-06,4.26139990672425e-06,-7.17725393784008e-06,-0.00137063333214815
"17:27456255:G:C",-0.000516761818558198,-0.00284107644884202,-0.000118205825449635,-0.00437082820739931,-0.00103349561266031,-0.00242732762137576,-0.00151079338710636,-0.000532333700171694,-0.000118205825449635,-0.000649215532145586,-0.000109421055423553,-0.00331377674122235,-3.05956759119042e-05,-0.00139722084505056,-0.00147730859678319,-0.00911341377585106,-0.0130056446462756,-0.0180607508084769,0.000138105747524708,-0.00103349561266031,-0.00561474495630954,-0.000452729822464804,-0.00222433397740307,-0.00124690488270929,0.195621027906872,-0.00151079338710547,-0.00838302626014453,-0.000323126248285899,-0.00166950606035421,-0.00132773281154819,-0.00180166260514181,-0.000957514073474997,-0.00561474495630954,-0.0012411863655486,-0.0112571915184123,-0.0027315981466951,-0.0321173649546251,-0.0107988420525706,-0.000957514073474997,-0.00222433397740307,-0.00179169363661558,-0.00561474495630954,-0.0119314483603263,-0.0027315981466951,-0.00852142422328939,-0.00024091987624697,-1.37395355475078e-05,-0.0107988420525706
"17:27458759:C:T",-0.00175408087733153,-0.000980468651219368,-0.00123000601035361,-0.00447951941219848,-0.0113994981745948,-0.00571906312995996,0.00116482191312173,6.8752455523402e-05,-0.00123000601035361,-0.000622235749425215,-0.000133402083561052,0.000212126942386703,-0.000174072427338245,-7.88961196134252e-05,-0.00132127894916945,-0.00204650507547299,-0.00146338014669878,-0.00681487311757145,-0.000114789796855419,-0.0113994981745948,-0.000770045298874145,-0.00108304920892976,1.27682656838601e-05,-0.00175800090177791,-0.00151079338710547,0.0758659874025982,-0.00202891664343863,-0.000226522781882288,-0.00152005614124118,-0.000974599445909163,-3.38756872855228e-05,-0.00123000601035361,-0.000770045298874145,-0.0016904243917315,-0.00126419091386376,-0.0013147785291423,-0.00233488583938612,-0.00149260164284915,-0.00123000601035361,1.27682656838601e-05,-0.000178840642558242,-0.000770045298874145,-0.00147010416011861,-0.0013147785291423,5.82161026905226e-05,-8.45441570591632e-05,0.000109845122223895,-0.00149260164284915
"17:27463464:T:C",-0.00139897164975888,6.7045522166076e-05,9.47069090146968e-05,-0.00149231743272615,-0.00548891639965277,-0.00145353655636971,-0.00202891664343863,-0.0032640887243458,9.47069090146968e-05,-0.00143819856254357,0.000160391360776835,-5.04890236845412e-05,-0.00149210200484262,-1.6113300345566e-05,4.69905551243599e-05,-0.000187085892714656,-0.0131093224340528,-0.00597769008865967,-0.00196089146127765,-0.00548891639965277,0.000276973984205675,0.000154727438165914,-2.77945844056049e-05,-0.00177468706868744,-0.00838302626014453,-0.00202891664343863,0.0808616932691155,-0.00133421210788587,-0.00242067628695963,0.000106886458207001,3.38606038745581e-05,9.47069090146968e-05,0.000276973984205675,-0.00270716565899054,-0.00955119428575513,-0.00143523519790101,-0.000303517251671437,0.00328735346010145,9.47069090146968e-05,-2.77945844047167e-05,0.000208625802398998,0.000276973984205675,-0.0104341535038004,-0.00143523519790101,-9.02421246751217e-05,0.000100840650351763,-0.00272411083837287,0.00328735346010145
"17:27463767:C:G",0.000167125444598959,-0.00136087662466533,-5.90097938708567e-05,-0.00106242237639886,-0.001171840378559,-0.000160447961895294,-0.000226522781882288,5.19283347895083e-05,-5.90097938708567e-05,0.000130918791843015,-9.65201159441875e-05,-0.00209006994795669,0.00246067587992904,-0.000958294941988846,-2.89230820804676e-05,8.83558680708774e-05,-2.69154892049706e-05,-0.00252795511050241,-0.00102380752001707,-0.001171840378559,-0.00544270664839441,-9.44785951526583e-05,1.00378143166324e-05,1.00378143166324e-05,-0.000323126248285899,-0.000226522781882288,-0.00133421210788587,0.0411813748276804,-0.00120610440765656,-6.34215093535673e-05,-0.00372813505621838,-5.90097938708567e-05,-0.00544270664839441,-0.00244507457651633,-0.000644332805823211,-0.00120444261773311,-0.00278581958155577,0.000234848476930338,-5.90097938708567e-05,1.00378143166324e-05,-0.000128711651729674,-0.00544270664839441,-0.000785607346234674,-0.00120444261773311,4.36358346984633e-05,-6.12277051503796e-05,8.24300608117667e-05,0.000234848476930338
"17:27467379:A:G",-0.00595007325149677,-0.00220690679042157,5.35589467620667e-06,6.31204993428724e-06,-0.00054247444436939,-5.10172891843297e-05,-0.00152005614124118,-7.52352861788097e-06,5.35589467620667e-06,-0.00562154090220979,7.67039882987319e-06,-0.00135562742836726,-0.00130496213690634,5.14846264199065e-06,2.91456467049755e-06,-0.00168623233174614,-2.77569050211035e-05,-0.000332633062828158,-0.000702756942162708,-0.00054247444436939,9.43940181397096e-06,7.54496427557427e-06,-1.43747810010808e-06,-0.00221683324840161,-0.00166950606035421,-0.00152005614124118,-0.00242067628695963,-0.00120610440765656,0.0456630011630152,5.74835617506153e-06,2.35698524875261e-06,5.35589467620667e-06,9.43940181397096e-06,-0.00574074842104011,-0.000177397517536537,-0.00196840919535113,-0.00085983558522873,-5.12797128502385e-05,5.35589467620667e-06,-1.43747810010808e-06,-0.00290103439102474,9.43940181397096e-06,-0.00113092597344755,-0.00196840919535113,-6.01350009254986e-06,5.55578400263101e-06,-1.2574608412308e-05,-5.12797128502385e-05
"17:27476124:A:G",6.84514322761842e-05,3.05146853207816e-05,-0.00446417444395042,-2.9287990998661e-05,2.70296223296995e-05,9.28204446690728e-05,-0.000974599445909163,-0.000504329575335305,-0.00446417444395042,5.3711308496851e-05,-3.80097943528668e-05,6.54938419222262e-05,-4.87207263155653e-05,-2.20281329079697e-05,-0.00108607926728954,3.62469355534856e-05,-0.00089972983356823,-0.00133571653140407,-3.13032479235531e-05,2.70296223296995e-05,-6.65979225180635e-05,-0.00476536154242524,4.44042057790028e-06,4.44042057790028e-06,-0.00132773281154819,-0.000974599445909163,0.000106886458207001,-6.34215093535673e-05,5.74835617506153e-06,0.0319547203390806,-9.19467847904087e-06,-0.00446417444395042,-6.65979225180635e-05,8.79063898127086e-05,-0.000201787806553888,2.10300524017271e-06,-0.00148871133930761,9.60773900047229e-05,-0.00446417444395042,4.44042057790028e-06,-5.04786366013477e-05,-6.65979225180635e-05,-0.000237505692734175,2.10300524017271e-06,1.78733884688143e-05,-2.4030756746285e-05,-0.000614994567846416,9.60773900047229e-05
"17:27476364:A:G",-0.00263718589548478,1.08134557610384e-05,-0.00147872793418191,-1.06267756878609e-05,-0.0055933255563998,-0.00459722444820709,-3.38756872855228e-05,7.65722661366652e-06,-0.00147872793418191,-0.00248663501474677,-1.41574725454063e-05,2.1884457298782e-05,-0.00354990095106356,-8.01303759523364e-06,-4.07845553240804e-06,1.26093372081471e-05,-0.00105483852397104,-0.0019315950547254,-1.14370792099194e-05,-0.0055933255563998,-2.55490999716557e-05,-0.00128905439994309,1.65363661164264e-06,-0.00256549601132328,-0.00180166260514181,-3.38756872855228e-05,3.38606038745581e-05,-0.00372813505621838,2.35698524875261e-06,-9.19467847904087e-06,0.0554512187391341,-8.41039028998125e-06,-2.55490999716557e-05,-0.00255907223396701,-0.00529442347647713,1.00267332303616e-06,-0.00220883039851927,3.07519393905054e-05,-8.41039028998125e-06,1.65363661164264e-06,-1.90152092685025e-05,-2.55490999716557e-05,-0.00553058520597904,1.00267332303616e-06,6.35576771124136e-06,-8.80425685689801e-06,1.17196056717006e-05,3.07519393905054e-05
"17:27476583:C:G",6.13837255807326e-05,2.77504427659281e-05,-0.00299526764701241,-0.000204612087069123,-0.000114974942540869,8.29686292327381e-05,-0.00123000601035361,-0.00198205933428142,-0.00299526764701241,4.84043411752566e-05,-3.51275126790895e-05,5.87759087489204e-05,-4.51442641207223e-05,-2.02496379486661e-05,-0.00388253136143035,3.28459265155345e-05,-0.0008353795248075,-3.87509092085736e-05,-2.88366443950139e-05,-0.000114974942540869,-0.00066356979580906,-0.000975245290055327,4.07925330581094e-06,4.07925330581094e-06,-0.000957514073474997,-0.00123000601035361,9.47069090146968e-05,-5.90097938708567e-05,5.35589467620667e-06,-0.00446417444395042,-8.41039028998125e-06,0.0267898491425234,-0.00066356979580906,7.83321149704364e-05,-0.000638789288327501,2.00759640200943e-06,7.98374824420023e-05,8.53375517095856e-05,0.000362311375188717,4.07925330581094e-06,-4.68060681440008e-05,-0.00066356979580906,-0.00053206902709757,2.00759640200943e-06,1.62856359535724e-05,-2.21160985756086e-05,-0.00247770324796104,8.53375517095856e-05
"17:27477307:C:G",0.000178530470313021,7.63714371263546e-05,-0.00066356979580906,-8.12788287403166e-05,6.40969884138087e-05,-0.000588187414633623,-0.000770045298874145,5.48214426769889e-05,-0.00066356979580906,0.000139342205190296,-0.000101074350635777,0.000171243670008536,-0.00523182966891778,-0.000727825710750807,-3.04868067013686e-05,9.36802217701427e-05,-0.000333392683687705,1.63501843175595e-05,-8.58577441587016e-05,6.40969884138087e-05,0.00281163344905,-0.000505239677012881,-0.00081271786687509,1.04920334713654e-05,-0.00561474495630954,-0.000770045298874145,0.000276973984205675,-0.00544270664839441,9.43940181397096e-06,-6.65979225180635e-05,-2.55490999716557e-05,-0.00066356979580906,0.0233307378867416,0.000229570470365204,-0.00296206864875348,8.88497110551612e-07,0.000116202742010962,0.000252636568211173,-0.00066356979580906,-0.00081271786687509,-0.000485159025695125,0.00281163344905,-0.00292963007335079,8.88497110551612e-07,4.60940729460901e-05,-6.4329526570539e-05,8.74030730084741e-05,0.000252636568211173
"17:27477938:T:C",0.00170818465712941,-0.00138426924564605,7.83321149704364e-05,-0.0036151177847934,-0.000134854950058383,-0.00747594611945512,-0.0016904243917315,-9.0071677928627e-05,7.83321149704364e-05,0.00104792814445265,0.000132290312459205,-0.000268661015920379,-0.00232208001272038,7.34494322243151e-05,3.8781041134861e-05,-0.000148444189790986,-0.00343736493501812,-0.00463551701495746,-0.00506569374543542,-0.000134854950058383,0.000229570470365204,0.000127810455456512,-0.00019694966147199,-2.15969629149271e-05,-0.0012411863655486,-0.0016904243917315,-0.00270716565899054,-0.00244507457651633,-0.00574074842104011,8.79063898127086e-05,-0.00255907223396701,7.83321149704364e-05,0.000229570470365204,0.0673114895379654,-0.00703095568662571,-0.00149721001219394,-0.00575064778169576,-0.0010534366274868,7.83321149704364e-05,-0.00019694966147199,0.000172755214911113,0.000229570470365204,-0.00649295099666558,-0.00149721001219394,-7.20332851695815e-05,8.31506855512032e-05,-0.000135436745389406,-0.0010534366274868
"17:27480495:C:G",-0.00380252384023549,-0.00375344938502087,-6.90426731262406e-05,-0.00499322076107367,-0.00199341176808865,0.000461335301701116,-0.00126419091386376,-0.000621037722637219,-6.90426731262406e-05,-0.00487738145333028,-0.000513211862605445,-0.00515765926826095,-0.000420598080351553,-0.00147949022722127,-3.8917552132034e-05,-0.00978560454494026,-0.0101370355999899,-0.0136145149989368,-0.00186629962833607,-0.00199341176808865,-0.00296206864875348,-0.000264979738245685,-0.00149515521974752,-0.002412460936422,-0.0112571915184123,-0.00126419091386376,-0.00955119428575513,-0.000644332805823211,-0.000177397517536537,-0.000201787806553888,-0.00529442347647713,-0.000638789288327501,-0.00296206864875348,-0.00703095568662571,0.174233316968977,-0.00375583199279905,-0.00943548041135633,-0.0114944847160015,-0.000638789288327501,-0.00149515521974752,-0.00300195186583885,-0.00296206864875348,-0.00543854404367483,-0.00375583199279905,-0.00801612338116886,-0.000346400493585364,-0.000252464287961551,-0.0114944847160015
"17:27486280:T:C",-0.00147926177305635,-0.00361231123558703,2.00759640200943e-06,-0.000289458517593211,-0.00431353906533172,-0.0015747385035878,-0.0013147785291423,-0.00405117282086032,2.00759640200943e-06,-0.00159064738073056,2.34347838645732e-06,-5.44649987412882e-05,-0.0013015284242055,-0.00266514517814187,1.21480571291244e-06,-7.3236209612304e-06,-0.00335633673002134,-0.00280232143080017,-0.00168975860517229,-0.00431353906533172,8.88497110551612e-07,2.3451902801952e-06,-6.57969823514293e-07,-6.57969823514293e-07,-0.0027315981466951,-0.0013147785291423,-0.00143523519790101,-0.00120444261773311,-0.00196840919535113,2.10300524017271e-06,1.00267332303616e-06,2.00759640200943e-06,8.88497110551612e-07,-0.00149721001219394,-0.00375583199279905,0.0599416220338873,-0.00390961182201455,-3.10678355868177e-05,2.00759640200943e-06,-6.57969823514293e-07,2.0470764923175e-06,8.88497110551612e-07,-0.00420946599721139,2.3451902801952e-06,-2.96295748736242e-06,2.05756113302868e-06,-0.0034577949632375,-3.10678355868177e-05
"17:27486673:G:A",-0.00421811109721393,-0.00312298881768491,7.98374824420023e-05,-0.00238777319853511,-0.000584324777540779,-0.00178259930124947,-0.00233488583938612,-0.00176619989171822,7.98374824420023e-05,-0.00442824888771209,-0.00673587850685831,6.98949157813544e-05,-0.00314990695714457,0.000107180455452216,-0.00203375745332934,-0.000571504209277762,-0.00552476854053552,-0.00636107205212522,-0.0012490630642441,-0.000584324777540779,0.000116202742010962,0.000104440087208779,-9.50995454624959e-05,-8.06223796114836e-05,-0.0321173649546251,-0.00233488583938612,-0.000303517251671437,-0.00278581958155577,-0.00085983558522873,-0.00148871133930761,-0.00220883039851927,7.98374824420023e-05,0.000116202742010962,-0.00575064778169576,-0.00943548041135633,-0.00390961182201455,0.137970134127824,-0.000433227134416292,7.98374824420023e-05,-9.50995454624959e-05,-0.00284526734025636,0.000116202742010962,-0.00728611553835679,-0.00390961182201455,-0.00772236907758206,-0.00524471936148263,-0.00274413652554895,-0.000433227134416292
"17:27491082:A:G",-0.000307811098149813,-0.000148178584556291,8.53375517095856e-05,-0.00165079590478534,-0.00137871049019545,-0.00251290129371018,-0.00149260164284915,-9.86746763942392e-05,8.53375517095856e-05,-0.000241656934875323,0.000144844580705517,-0.000830374451536997,0.000179613135334655,-0.00265757487623119,4.21866659063852e-05,-0.000161891932870972,-0.0160115560148739,-0.00294526860659516,0.000108058139786316,-0.00137871049019545,0.000252636568211173,0.000139789227635134,-2.39635413068484e-05,-0.00137063333214815,-0.0107988420525706,-0.00149260164284915,0.00328735346010145,0.000234848476930338,-5.12797128502385e-05,9.60773900047229e-05,3.07519393905054e-05,8.53375517095856e-05,0.000252636568211173,-0.0010534366274868,-0.0114944847160015,-3.10678355868177e-05,-0.000433227134416292,0.0603331611605347,8.53375517095856e-05,-2.39635413068484e-05,0.000189334507335381,0.000252636568211173,-0.0118532245830791,-3.10678355868177e-05,-7.88049126851931e-05,9.07413107924526e-05,-0.000147649288518181,0.00472493384828265
"17:27498049:T:C",6.13837255807326e-05,2.77504427659281e-05,-0.00299526764701241,-0.000204612087069123,-0.000114974942540869,8.29686292327381e-05,-0.00123000601035361,-0.00198205933428142,-0.00299526764701241,4.84043411752566e-05,-3.51275126790895e-05,5.87759087489204e-05,-4.51442641207223e-05,-2.02496379486661e-05,-0.00388253136143035,3.28459265155345e-05,-0.0008353795248075,-3.87509092085736e-05,-2.88366443950139e-05,-0.000114974942540869,-0.00066356979580906,-0.000975245290055327,4.07925330581094e-06,4.07925330581094e-06,-0.000957514073474997,-0.00123000601035361,9.47069090146968e-05,-5.90097938708567e-05,5.35589467620667e-06,-0.00446417444395042,-8.41039028998125e-06,0.000362311375188717,-0.00066356979580906,7.83321149704364e-05,-0.000638789288327501,2.00759640200943e-06,7.98374824420023e-05,8.53375517095856e-05,0.0267898491425234,4.07925330581094e-06,-4.68060681440008e-05,-0.00066356979580906,-0.00053206902709757,2.00759640200943e-06,1.62856359535724e-05,-2.21160985756086e-05,-0.00247770324796104,8.53375517095856e-05
"17:27499608:C:T",-0.000214291710747716,-6.63558617031157e-06,4.07925330581094e-06,4.98716398489307e-06,-0.0018401731621589,-0.000102087772606119,1.27682656838601e-05,-4.50388660055978e-06,4.07925330581094e-06,-0.000163476112829741,6.50084938591533e-06,-1.5147512002045e-05,8.03379522373859e-06,3.89390755106689e-06,2.0689932291873e-06,-7.8174122313257e-06,-0.00242868990776657,-2.8912405450221e-05,5.34493958337379e-06,-0.0018401731621589,-0.00081271786687509,6.34432544543984e-06,0.00215033271274567,-9.29751417189095e-07,-0.00222433397740307,1.27682656838601e-05,-2.77945844047167e-05,1.00378143166324e-05,-1.43747810010808e-06,4.44042057790028e-06,1.65363661164264e-06,4.07925330581094e-06,-0.00081271786687509,-0.00019694966147199,-0.00149515521974752,-6.57969823514293e-07,-9.50995454624959e-05,-2.39635413068484e-05,4.07925330581094e-06,0.0115867563317726,8.31103193466021e-06,-0.00081271786687509,-0.000652969949363147,-6.57969823514293e-07,-3.66819194397294e-06,4.26139990672425e-06,-7.17725393784008e-06,-2.39635413068484e-05
"17:27500496:C:T",0.000134765934293846,5.89220393116818e-05,-4.68060681440008e-05,-0.00345492729381469,5.06040078001035e-05,0.000175966074412948,-0.000178840642558242,4.2032777231249e-05,-4.68060681440008e-05,0.000105620529075701,-7.67748250760647e-05,-0.002247120514693,-9.90217482925715e-05,-4.49394442805229e-05,-2.29563792704113e-05,7.12754447942388e-05,-0.00171503126622774,-0.00202020947513404,-0.00245115407345065,5.06040078001035e-05,-0.000485159025695125,-7.50686557946523e-05,8.31103193466021e-06,8.31103193466021e-06,-0.00179169363661558,-0.000178840642558242,0.000208625802398998,-0.000128711651729674,-0.00290103439102474,-5.04786366013477e-05,-1.90152092685025e-05,-4.68060681440008e-05,-0.000485159025695125,0.000172755214911113,-0.00300195186583885,2.0470764923175e-06,-0.00284526734025636,0.000189334507335381,-4.68060681440008e-05,8.31103193466021e-06,0.0283354703933067,-0.000485159025695125,-0.00278402473883688,2.0470764923175e-06,-0.00210230724733673,-4.86523558240748e-05,6.63848953488255e-05,0.000189334507335381
"17:27501415:C:T",0.000178530470313021,7.63714371263546e-05,-0.00066356979580906,-8.12788287403166e-05,6.40969884138087e-05,-0.000588187414633623,-0.000770045298874145,5.48214426769889e-05,-0.00066356979580906,0.000139342205190296,-0.000101074350635777,0.000171243670008536,-0.00523182966891778,-0.000727825710750807,-3.04868067013686e-05,9.36802217701427e-05,-0.000333392683687705,1.63501843175595e-05,-8.58577441587016e-05,6.40969884138087e-05,0.00281163344905,-0.000505239677012881,-0.00081271786687509,1.04920334713654e-05,-0.00561474495630954,-0.000770045298874145,0.000276973984205675,-0.00544270664839441,9.43940181397096e-06,-6.65979225180635e-05,-2.55490999716557e-05,-0.00066356979580906,0.00281163344905,0.000229570470365204,-0.00296206864875348,8.88497110551612e-07,0.000116202742010962,0.000252636568211173,-0.00066356979580906,-0.00081271786687509,-0.000485159025695125,0.0233307378867416,-0.00292963007335079,8.88497110551612e-07,4.60940729460901e-05,-6.4329526570539e-05,8.74030730084741e-05,0.000252636568211173
"17:27502756:G:A",-0.00344816242109625,-0.00420171825869531,-6.14545641548503e-05,-0.00456584043512631,-0.00364559085967642,0.000237507977443485,-0.00147010416011861,-0.000602299327951528,-6.14545641548503e-05,-0.00447237275077761,-0.000456753671023158,-0.00516780402706374,-0.000508559288483035,-0.00167037925593583,-5.34479518670139e-05,-0.0101688547804626,-0.0122038032097147,-0.0113271580110319,-0.00039053300403058,-0.00364559085967642,-0.00292963007335079,-0.000208225552060348,-0.000652969949363147,-0.00254506983967762,-0.0119314483603263,-0.00147010416011861,-0.0104341535038004,-0.000785607346234674,-0.00113092597344755,-0.000237505692734175,-0.00553058520597904,-0.00053206902709757,-0.00292963007335079,-0.00649295099666558,-0.00543854404367483,-0.00420946599721139,-0.00728611553835679,-0.0118532245830791,-0.00053206902709757,-0.000652969949363147,-0.00278402473883688,-0.00292963007335079,0.169683249975116,-0.0042094659972105,-0.00161931149673666,-0.000338536453794447,-0.000281418315520199,-0.01185322458308
"17:27502835:T:C",-0.00147926177305635,-0.00361231123558703,2.00759640200943e-06,-0.000289458517593211,-0.00431353906533172,-0.0015747385035878,-0.0013147785291423,-0.00405117282086032,2.00759640200943e-06,-0.00159064738073056,2.34347838645732e-06,-5.44649987412882e-05,-0.0013015284242055,-0.00266514517814187,1.21480571291244e-06,-7.3236209612304e-06,-0.00335633673002134,-0.00280232143080017,-0.00168975860517229,-0.00431353906533172,8.88497110551612e-07,2.3451902801952e-06,-6.57969823514293e-07,-6.57969823514293e-07,-0.0027315981466951,-0.0013147785291423,-0.00143523519790101,-0.00120444261773311,-0.00196840919535113,2.10300524017271e-06,1.00267332303616e-06,2.00759640200943e-06,8.88497110551612e-07,-0.00149721001219394,-0.00375583199279905,2.3451902801952e-06,-0.00390961182201455,-3.10678355868177e-05,2.00759640200943e-06,-6.57969823514293e-07,2.0470764923175e-06,8.88497110551612e-07,-0.0042094659972105,0.0599416220338864,-2.96295748736242e-06,2.05756113302868e-06,-0.0034577949632375,-3.10678355868177e-05
"17:27503346:G:A",-5.50057481696342e-05,-2.45873045505718e-05,1.62856359535724e-05,-0.0025201972612976,-0.00397565292510738,-0.00149169913429503,5.82161026905226e-05,-1.68757574883216e-05,1.62856359535724e-05,-4.27385781245349e-05,2.68520252788562e-05,-5.23164371326601e-05,3.38017912975275e-05,1.54763663440249e-05,8.07742992225968e-06,-2.84304647291123e-05,-0.0075020864259443,-0.00838700312258744,2.15194366877114e-05,-0.00397565292510738,4.60940729460901e-05,2.61194881687743e-05,-3.66819194397294e-06,-3.66819194308476e-06,-0.00852142422328939,5.82161026905226e-05,-9.02421246751217e-05,4.36358346984633e-05,-6.01350009254986e-06,1.78733884688143e-05,6.35576771124136e-06,1.62856359535724e-05,4.60940729460901e-05,-7.20332851695815e-05,-0.00801612338116886,-2.96295748736242e-06,-0.00772236907758206,-7.88049126851931e-05,1.62856359535724e-05,-3.66819194397294e-06,-0.00210230724733673,4.60940729460901e-05,-0.00161931149673666,-2.96295748736242e-06,0.0558861391968533,1.7084578429305e-05,-2.61815351327854e-05,-7.88049126851931e-05
"17:27504563:G:A",6.49402918035946e-05,2.91429263903353e-05,-2.21160985756086e-05,-2.81244860396157e-05,-0.00264153094760378,9.12180068990409e-06,-8.45441570591632e-05,2.05695227419866e-05,-2.21160985756086e-05,5.10750870077459e-05,-0.00113586201905047,6.21560098519325e-05,-4.69420681197263e-05,-2.11433663164229e-05,-1.08405650456334e-05,3.4557445749428e-05,-0.000132547444249731,-0.0059912327255347,-3.0075946105157e-05,-0.00264153094760378,-6.4329526570539e-05,-3.56779031882581e-05,4.26139990672425e-06,4.26139990672425e-06,-0.00024091987624697,-8.45441570591632e-05,0.000100840650351763,-6.12277051503796e-05,5.55578400263101e-06,-2.4030756746285e-05,-8.80425685689801e-06,-2.21160985756086e-05,-6.4329526570539e-05,8.31506855512032e-05,-0.000346400493585364,2.05756113302868e-06,-0.00524471936148263,9.07413107924526e-05,-2.21160985756086e-05,4.26139990672425e-06,-4.86523558240748e-05,-6.4329526570539e-05,-0.000338536453794447,2.05756113302868e-06,1.7084578429305e-05,0.0187706762301385,3.20880103972243e-05,9.07413107924526e-05
"17:27506558:A:G",-0.00010361792056468,-0.00305072542894713,-0.00247770324796104,3.68056127983962e-05,-4.45567301747829e-05,-0.0047041785019184,0.000109845122223895,-8.53960759625849e-05,-0.00247770324796104,-8.07701239891045e-05,5.06409314580125e-05,-9.84706185924722e-05,6.3620455703628e-05,2.89050804962443e-05,-0.000314655641440176,-5.38793422784067e-05,-0.000117381922168036,-0.00215162799892621,4.00212019560087e-05,-4.45567301747829e-05,8.74030730084741e-05,-0.00226409955137896,-7.17725393784008e-06,-7.17725393784008e-06,-1.37395355475078e-05,0.000109845122223895,-0.00272411083837287,8.24300608117667e-05,-1.2574608412308e-05,-0.000614994567846416,1.17196056717006e-05,-0.00247770324796104,8.74030730084741e-05,-0.000135436745389406,-0.000252464287961551,-0.0034577949632375,-0.00274413652554895,-0.000147649288518181,-0.00247770324796104,-7.17725393784008e-06,6.63848953488255e-05,8.74030730084741e-05,-0.000281418315520199,-0.0034577949632375,-2.61815351327854e-05,3.20880103972243e-05,0.0361676914853017,-0.000147649288518181
"17:27507322:G:C",-0.000307811098149813,-0.000148178584556291,8.53375517095856e-05,-0.00165079590478534,-0.00137871049019545,-0.00251290129371018,-0.00149260164284915,-9.86746763942392e-05,8.53375517095856e-05,-0.000241656934875323,0.000144844580705517,-0.000830374451536997,0.000179613135334655,-0.00265757487623119,4.21866659063852e-05,-0.000161891932870972,-0.0160115560148739,-0.00294526860659516,0.000108058139786316,-0.00137871049019545,0.000252636568211173,0.000139789227635134,-2.39635413068484e-05,-0.00137063333214815,-0.0107988420525706,-0.00149260164284915,0.00328735346010145,0.000234848476930338,-5.12797128502385e-05,9.60773900047229e-05,3.07519393905054e-05,8.53375517095856e-05,0.000252636568211173,-0.0010534366274868,-0.0114944847160015,-3.10678355868177e-05,-0.000433227134416292,0.00472493384828265,8.53375517095856e-05,-2.39635413068484e-05,0.000189334507335381,0.000252636568211173,-0.01185322458308,-3.10678355868177e-05,-7.88049126851931e-05,9.07413107924526e-05,-0.000147649288518181,0.0603331611605356
