"","17:30819778:G:A","17:30821161:G:T","17:30822830:G:A","17:30826845:G:T","17:30828685:C:T","17:30828777:T:C","17:30829882:C:T","17:30829894:G:A","17:30831245:C:T","17:30831522:G:C","17:30831628:T:C","17:30833016:C:T","17:30836944:G:T","17:30837018:T:G","17:30843201:G:A","17:30845428:A:C","17:30846624:C:G","17:30846919:T:A","17:30846985:C:T","17:30847666:C:G","17:30848513:G:A","17:30849410:A:T","17:30849633:T:A","17:30849897:C:T","17:30850035:A:G","17:30850132:C:T","17:30851208:A:G","17:30851635:G:A","17:30851730:A:G","17:30852988:G:A","17:30858177:T:C","17:30858454:T:C","17:30860929:A:G","17:30861761:G:T","17:30863752:C:T","17:30865166:A:G","17:30867296:C:T","17:30867305:G:A","17:30876400:C:T","17:30876764:A:G","17:30877228:G:A","17:30878005:T:C","17:30880382:C:T","17:30880649:C:G","17:30880650:G:A","17:30880899:C:A","17:30880957:C:A","17:30881674:T:G","17:30882346:A:G","17:30882877:C:A","17:30884028:A:G","17:30885738:G:A","17:30886881:G:T","17:30886970:C:T","17:30889104:G:A","17:30890092:C:T","17:30891190:G:A","17:30891392:A:G","17:30894372:T:G","17:30897864:T:C","17:30898292:T:C","17:30898340:C:A","17:30899037:T:A","17:30899045:A:G","17:30899334:A:G","17:30900443:C:T","17:30902216:A:G","17:30904325:T:G","17:30906715:C:T","17:30906960:G:A","17:30914801:G:C","17:30916196:A:G","17:30918079:G:A","17:30918182:C:T","17:30925139:C:T","17:30926324:C:T","17:30932559:C:T","17:30933360:A:G","17:30937747:A:T","17:30942291:A:G","17:30942538:G:A","17:30944404:C:G","17:30948223:G:C","17:30949832:G:A","17:30950277:T:C","17:30950422:T:C","17:30951933:C:T","17:30952407:C:T","17:30955629:A:G","17:30957743:G:A","17:30957785:G:T","17:30958801:G:A","17:30960107:G:C","17:30962529:G:A","17:30962831:G:A","17:30975189:G:C","17:30976365:A:G","17:30979641:A:G","17:30980555:C:T","17:30982980:G:A","17:30987593:C:T","17:30994487:G:A","17:31000713:T:C","17:31002738:A:G","17:31004123:C:A","17:31008203:C:A","17:31009574:T:C","17:31010249:A:C","17:31013544:C:T","17:31013877:C:T","17:31014156:C:T","17:31018953:G:A","17:31019026:T:C","17:31027834:C:T","17:31029222:T:C","17:31029941:C:A","17:31030458:C:T","17:31030716:G:A","17:31031508:C:T","17:31037626:G:C","17:31045723:G:A","17:31045894:A:G","17:31046830:T:C","17:31049586:C:T","17:31055010:T:C","17:31055520:G:A","17:31055755:A:G","17:31057455:C:T","17:31059996:C:T","17:31062018:A:G","17:31062850:T:C","17:31066624:C:T","17:31067250:C:T","17:31067782:C:G","17:31070141:C:G","17:31073043:T:G","17:31075754:G:C","17:31077045:C:T","17:31078272:C:T","17:31079451:T:C","17:31089612:C:T","17:31090454:C:T","17:31091284:G:A","17:31095080:C:G","17:31104939:G:A","17:31106721:T:A","17:31108695:T:C","17:31110875:T:C","17:31119037:A:G","17:31121096:C:G","17:31124743:T:C","17:31133089:G:A","17:31134162:A:C","17:31136164:A:C","17:31144364:A:C","17:31144489:C:A","17:31146403:A:G","17:31148315:G:A","17:31149426:A:G","17:31149755:G:A","17:31158073:C:T","17:31159757:C:T","17:31160714:C:T","17:31170672:C:T","17:31171527:T:C","17:31180390:A:G","17:31183152:T:C","17:31183213:G:A","17:31184631:T:C","17:31188125:T:C","17:31194410:T:C","17:31194795:C:T","17:31195475:T:C","17:31199422:C:A","17:31200561:T:C"
"17:30819778:G:A",0.312611819128966,7.29996765729268e-05,-0.00308099546151031,-0.00227900200550124,-9.2965410092738e-05,-5.22663908499865e-05,-0.00763352082914803,-0.000126077447172079,-0.00356059266278308,-0.0058698391973051,-4.36962519057005e-05,7.57506125568241e-05,-0.00140734155380517,-6.51437351857354e-05,-0.0044894528677526,0.000669635957034842,0.0003322871701954,-0.00132560320034614,-0.00183556718285693,7.29996765729268e-05,-0.00414929324973379,0.000883734325326735,-5.13796148453594e-05,-6.09428612179386e-05,-0.00391530204123036,-0.00711432083064079,-0.00149225504725781,-0.00255277443966939,-0.00246387064702347,-9.49385033575112e-05,0.00018486966009057,-0.00588613768814916,-0.00483660844427458,-0.00268398424381644,-0.00209979084175016,-0.0017989919825574,-0.00524392725047562,7.57506125568241e-05,0.000689090901303757,-0.000619501569755876,7.02765871762878e-05,-0.00228558230121401,-0.000848416629097848,-0.000943374226388016,-0.00127146827418212,-0.00425786566196251,-0.000763130631712627,-0.00133176464564411,-0.00561526259660283,-0.00270265828476912,-0.00209213544581344,-0.00292971755583959,-0.00430340584040678,-0.00458621304305229,-0.000355750539486444,8.77267306043095e-05,-0.0014002017990622,-0.011305325701743,-0.00196193111431864,-0.00151906871440222,6.37469982516237e-05,-0.00184735334534469,-0.000577837705075357,-0.00449599152096347,-0.000930991199072917,-2.07709355004582e-05,4.43276351314026e-05,-0.00195189490207426,-0.000582418628964909,7.29996765729268e-05,8.13377107045099e-05,-0.00862300384939907,-0.00258406364727559,-0.00402619912492241,-0.000426207473307016,-0.0011904374630074,-0.00518343329389204,0.000112272171749694,-0.0036585051728375,4.96517735806279e-05,4.43276351314026e-05,-0.000652121625549285,9.67523581962837e-06,-6.51437351857354e-05,-0.00144583822918065,-0.00173202219338187,-0.000664027768178421,9.67523581962837e-06,0.00010643848647085,-0.00817255882178092,-3.22070921514594e-05,4.17068003475407e-05,-0.000598219281989998,-0.0048916598039126,-0.00655067892640027,-0.000351531467813082,3.91129005326007e-05,-2.99677554354005e-05,-0.00167225145790439,-0.00145437965503259,-0.00230447071475925,-0.00201092576495654,7.29996765729268e-05,-0.00468816549931717,2.53992364793731e-05,-0.00435754654192655,0.000198803935457015,-2.31068169052051e-05,0.000224377772209294,0.00014246709232868,7.02765871762878e-05,-0.00151314608835751,-5.22663908499865e-05,-2.99677554354005e-05,-2.5417991645682e-05,-0.00463085576352373,-0.00373766329253566,-0.00640521571321528,-0.000585561504434118,1.25612153833998e-05,0.000231452592527326,-0.0011798802096834,-0.00222431662062661,-0.00223093948664932,-5.22663908499865e-05,3.91129005326007e-05,-0.000583384267979881,-0.00644430670382334,-0.00149263477520556,-0.00149993651450142,-0.000108422240328032,-0.00150362900512402,-0.00142488126484519,-9.09707619998201e-05,4.43276351314026e-05,-0.00355945910924671,-0.00540862717081492,1.25612153833998e-05,-0.00364547632126566,-0.00214053179378393,0.000284732553139655,-0.00327432098884728,-0.000351531467813082,-0.00362606859415493,-2.99677554354005e-05,-0.000867607721519725,-2.31068169052051e-05,-7.59251348529943e-05,-0.00360605409303361,3.91129005326007e-05,-0.0023999317555834,-0.00573061612077996,-0.00665789952430096,-0.00159607507597403,8.12762249591259e-05,4.78740721643334e-06,-0.00346854246129702,1.25612153833998e-05,-0.00370007651898963,-0.000525243029001032,-0.00624895557548477,3.65455298885209e-05,-0.000940506380705308,0.000277133715085753,-0.00665789952430096,-2.31068169052051e-05,-0.00349306324694876,-0.000336123241846842,-0.00364547632126566,7.57506125568241e-05,-0.000585561504434118,-0.00132059583965827,-4.82648090782689e-05,-0.00202823695524845,-0.00136265103485744
"17:30821161:G:T",7.29996765729268e-05,0.211849014227118,-0.000563583941404211,-7.85833366068189e-05,4.69005421033231e-05,-0.00169153029671865,-6.38113906221704e-05,6.28558606665663e-05,0.000121011051124498,1.54741757896204e-05,5.16719631260543e-06,-0.000650587926933177,0.000249087846878382,3.39322234479411e-05,4.14025560706577e-05,7.1759034529606e-05,-0.00111854210409668,-0.000128614075944888,-0.000806882185695024,-4.14518786948648e-05,-0.00638353353218868,0.000355633255152199,-0.00155923358926469,3.11071634655491e-05,-0.000573261055643925,-0.00501440740194692,-9.96024893495928e-06,-9.9602489340711e-06,-6.71598430441733e-05,4.82336041596199e-05,-0.000110249041744837,-0.000944678578423286,-0.00114417942037104,-6.50667375765579e-05,-0.00133288060167036,-8.02908326367202e-05,-0.0100517415752419,-4.33595575852763e-05,6.40990286200349e-05,-0.00970710611605696,-3.95673837489952e-05,-3.13212920088901e-05,-0.00129046567976498,-0.00170794882193714,-0.00374719171931837,-0.000182378224554469,-0.00396848109280956,2.6739408958143e-05,-7.18325851565282e-05,-9.65828350256714e-05,-0.0018168719321352,3.85497474999497e-05,-6.55901922375079e-06,4.95359934538087e-05,0.000167734956034948,-0.00357124202952441,-0.000661483401142249,-0.00114340997244256,-0.00330227277865092,9.26087733343905e-06,-0.00414177789417103,1.08426654863436e-05,-0.00144517715594095,0.000166371607106086,-0.00188535086127661,9.26087733343905e-06,-2.57896781237221e-05,-2.94544635988103e-05,-0.00459114224393087,-4.14518786948648e-05,-4.72461941249946e-05,-0.000194707802262606,-0.00556481991155433,-0.00476945358774561,-0.00490972581165039,-3.84251794018908e-05,-0.00123863490088727,-6.50667375765579e-05,-0.00480449397392935,-2.94544635979221e-05,-2.57896781237221e-05,-0.00531465050808322,-6.55901922375079e-06,3.39322234479411e-05,-0.00324042113756562,-0.00128535992233925,6.53272134591987e-05,-6.55901922375079e-06,-6.09577816090834e-05,-0.00775431203933241,1.69811899768391e-05,-0.000944678578423286,-0.0005484859640843,-0.00166444691319345,-0.000375857917049416,-0.0025254307258713,-2.22139403112109e-05,1.54741757896204e-05,-0.0105543538923705,-0.00359933456021011,-0.0016444867653167,5.09453309049945e-05,-4.14518786948648e-05,-0.0093913987220926,9.26087733343905e-06,-0.00332254911771468,6.77397026747073e-05,1.08426654872318e-05,-0.000136395730070404,-8.29150479182417e-05,-3.95673837489952e-05,-0.0024146651608028,2.52474957518345e-05,1.54741757896204e-05,1.24052480936498e-05,-0.00101942581389824,-0.00608308683134506,-7.03327343885007e-05,-2.94544635988103e-05,-5.90114198839586e-06,-0.000141754605809119,1.54741757896204e-05,-0.0010908249638053,7.29996765720387e-05,2.52474957518345e-05,-2.22139403112109e-05,-0.000506182239725206,-9.89770469059792e-05,1.08426654872318e-05,1.58938660526076e-05,1.05110066783709e-06,-0.000669227978799647,-0.00240628474417992,4.55512091175336e-05,-2.57896781246103e-05,-1.61023537437188e-06,-0.00216559932263127,-5.90114198839586e-06,-0.00621472119355104,-0.000865786186602158,-0.000176842391910625,-9.00816913862457e-06,-0.0025254307258713,7.66291690750265e-05,1.54741757896204e-05,-0.00247442860121438,1.08426654872318e-05,-0.00141451829172379,-0.00628285872400358,-2.22139403112109e-05,-0.00414244205585312,-0.00204994939536629,-0.000160572773800105,1.90907640682525e-05,-1.51170648736709e-05,-3.23991338024854e-06,1.28530011851424e-05,-5.90114198839586e-06,-0.00628023364673336,-0.000494964686440724,-0.000573261055643925,-2.04584590468571e-05,-0.00254858090798038,2.8213105354169e-05,-0.000160572773800105,1.08426654872318e-05,1.4626389971184e-05,-8.07357835537204e-05,-0.00621472119355104,-4.33595575852763e-05,-2.94544635988103e-05,-0.00228155836823518,-2.63683440788753e-05,-0.00101155681393905,-0.00107153406586757
"17:30822830:G:A",-0.00308099546151031,-0.000563583941404211,0.419693767416083,-0.00377323651343797,4.62902980293833e-05,-0.00159636233552884,-0.000139324032193855,-0.000181681106797171,-0.00109612012760163,1.6693115641786e-05,-0.00111210203171375,-5.43497745439936e-05,-0.000171436171012118,3.47715885720135e-05,5.92657631219851e-05,-0.00146666558648878,-0.00168226138517147,-0.000191720523726957,-0.00352606831212565,-5.16784002293491e-05,-0.000864097155230059,-0.00472228027138133,-0.00661329018818613,3.21500814921549e-05,-0.00144339596119458,0.000132165825348807,-4.26413709275764e-05,-0.00212099275018929,-0.00320180833912875,4.73972239003473e-05,-0.000596079386632198,-0.00038453954995088,-0.0032212813874466,-0.00244007072910613,-0.00326127967855117,-0.000129223975815052,-0.00567733225355749,-0.0015137063051176,-2.30234008595787e-05,-0.00288833448002768,-0.00103065757538356,-5.41741817432495e-05,-0.00282735700344272,0.000182523695621661,-0.00238410258708566,-0.00728015740355792,-0.0018357736411474,-0.00815565187376066,-0.00071811865404392,-0.00756364207212012,-0.00229513868291153,3.90741863629529e-05,-0.00219186755351597,-0.00239828418240862,0.000100720854375069,-0.0116497795516191,-0.00170731836356275,-0.0142641092754161,-0.0100833351004304,-0.00647978191005727,-0.000619809520745918,-0.00218248582211,-0.00231845964137944,-0.0126743088804098,-0.0248980214916488,-0.00111390388157862,-8.28813407185436e-05,-0.00771808907220173,-0.00323269598684472,-0.00135030417641691,-0.000262145058846031,-0.000239776073509113,-0.00923950508239191,-0.00157426739461997,0.000116486206996669,-0.00815890347190695,-0.0105799329250029,-0.0107177611921507,-0.00204607047335958,-0.00266714121562384,-0.00514785443157084,-2.1508001018411e-05,-7.58798879729738e-06,3.47715885720135e-05,-0.000959115348342365,-0.00200570344183237,6.08094105984947e-05,-1.05135407357793e-05,-0.00112941263917854,-0.0101507465161825,-0.00514906357382294,-0.0019248453330416,-0.000126410150920186,-0.00614537320398467,-0.000512198866033486,-0.000706445060086658,-2.64860502294795e-05,1.6693115641786e-05,-0.00439618001607078,-0.000760196071955654,-0.00653586042981136,-0.0067006440666022,-5.16784002293491e-05,-0.00310684923080995,-2.19301721404719e-05,-0.00605790144012186,6.25077347722325e-05,-0.00111236384306324,-0.00290023310300302,0.000237470422611352,-4.90640175545565e-05,8.40941857482846e-05,-0.00553241441427854,1.6693115641786e-05,-0.00024961380890165,-0.000110486268228627,-0.00152433840784116,-0.00694356618286651,-0.0018999626886389,-0.00113551648130095,-0.00028394567581369,1.6693115641786e-05,-0.00370079372055976,-0.00459841707369169,-0.00553241441427854,-2.64860502294795e-05,-0.00312487117848548,-0.00677474979265291,-0.0119098540643581,-9.93168156613322e-05,-0.000816589085158803,-0.00152779909125567,3.92893105294334e-05,4.51573031812202e-05,-3.10906319613835e-05,-1.83531020958583e-06,-0.000988422155216107,-0.00113551648130095,-0.00160044072086141,-0.000144569715923915,-0.00252102094430828,-0.000789076325060201,-0.000706445060086658,-0.0026402080978869,1.6693115641786e-05,7.40615420573576e-05,-0.000121964977202182,-8.65346272860279e-06,-0.00165262813895195,-2.64860502294795e-05,-0.00246480447475195,-0.000972860453257951,-0.00822348185092059,-4.419555576618e-06,-0.00408934223673185,-3.71099740092973e-06,-0.000888856879298849,-0.00113551648130095,-0.0016509248646539,-0.00333875755726165,-0.000411841156793713,-2.4257762529345e-05,0.000134005246879454,-0.00011825115244779,-0.00822348185092059,-0.000121964977202182,-7.17475509368626e-05,-0.00248406930602751,-0.00160044072086141,-5.43497745439936e-05,-0.0018999626886389,-4.42530444644262e-05,-0.00109852377082031,-0.00405786834336652,-0.00205422458862436
"17:30826845:G:T",-0.00227900200550124,-7.85833366068189e-05,-0.00377323651343797,0.161539805690009,8.81454465622156e-05,4.64343028285796e-05,-0.000122756312006977,0.000118326474201957,0.000227284225077007,2.89900012901967e-05,-7.15894413971796e-07,-8.23587027971584e-05,0.000478067036774554,6.41278810880053e-05,7.68522496734647e-05,-0.000851144991075081,-0.00274557725860447,-0.000241715427208966,-0.000206903471502429,-7.85833366068189e-05,-0.00179660732247822,-0.00191951251736278,0.000218657422855095,5.83692518913992e-05,-0.000666062752032737,-0.00169997051327186,-1.99841057009209e-05,-1.99841056991445e-05,-0.000127369897263918,9.0885358283721e-05,-0.000207875228290355,-4.59008687148099e-05,-0.000482919773748591,-0.000123256873395761,-0.00711133781663875,-0.000353642822624067,-0.00699765882793368,-8.23587027971584e-05,0.000120905552127404,-0.00190404327422744,-7.485263164142e-05,-6.04945624607112e-05,-0.0021395949555254,0.000271644433967211,-0.00131195914487936,-0.000310589628804259,-0.000311839891913301,-0.00728036499075202,-0.000140816154403645,-0.000183088080297544,-0.00233438122689122,7.09968911216663e-05,-1.31638999469885e-05,9.07302483934558e-05,0.00032133450517513,3.39079461868508e-05,-0.00226213754541682,-0.00472764956475213,-0.00224845211262004,-0.00753358300311646,-0.00810625636780316,1.96274504613569e-05,-0.00208912052887733,-0.00231885181803815,-0.00358485406796127,1.64316687811805e-05,-4.94837170919027e-05,-5.6779769002091e-05,0.00055143429547666,-7.85833366068189e-05,-9.00466642477227e-05,-0.000194015196409936,-0.00301196905161571,-0.00178896026076547,0.000163436989333299,-7.69035592167455e-05,-0.000112151043860642,-0.000123256873395761,-0.00165248185185618,-0.000113744290002771,-4.94837170919027e-05,-4.04726030112101e-05,-1.31638999469885e-05,6.41278810880053e-05,-0.000529220671367625,-0.00367788417696513,0.000123454132300971,-1.31638999469885e-05,-0.000115178397767757,-0.0019068081227811,3.20381028711125e-05,-0.000245783167126312,-7.69035592176337e-05,-0.00319132831301872,-0.000285853656510682,0.000311384408601789,-4.23604434587332e-05,2.89900012901967e-05,-0.00222615522280822,1.04255786750329e-05,-0.00255388129283762,9.36469285335306e-05,-7.85833366068189e-05,-0.00526084746182232,1.64316687811805e-05,-0.00276444971163592,0.000128461937504376,1.96274504622451e-05,-0.000256726322690248,-0.000156410289980258,-7.485263164142e-05,0.000414827850245381,4.64343028285796e-05,2.89900012901967e-05,2.27853221366203e-05,-5.31097553935211e-05,-0.00462361001611011,-0.00482627834479388,-0.000346139980449855,-0.000815889025931327,0.00131943382318056,2.89900012901967e-05,-0.000145631031580606,0.00013640279685756,4.64343028285796e-05,-4.23604434587332e-05,-0.00365239075895119,-0.00477793706286977,1.96274504622451e-05,2.74090847209862e-05,-0.000623080397275544,-3.88616925555141e-05,0.00038182790451291,8.53727778604707e-05,-4.94837170927909e-05,-3.23315461692175e-06,-0.000459612814934118,-0.000815889025931327,-0.0045417588991894,-0.000189291048507734,0.000173420635110055,-2.30871036865921e-05,0.000311384408601789,0.000144004976569079,2.89900012901967e-05,0.000348043999832015,1.96274504622451e-05,-9.81441955349993e-06,-0.00449922521702462,-4.23604434587332e-05,-0.00209116101378015,-0.000478436230646473,-0.0046212139251125,3.39079461859626e-05,-3.27070364329884e-05,-6.50440214489123e-06,1.83905338522194e-05,-0.000815889025931327,-0.00450412129990063,-0.00364117320566759,-0.000123256873395761,-3.88616925555141e-05,0.000346793661800682,5.24730550477415e-05,-0.0046212139251125,1.96274504622451e-05,2.20132480155399e-05,-0.000152151047925209,-0.0045417588991894,-8.23587027971584e-05,-0.000346139980449855,0.000449556048423005,-0.000715748654243065,-0.000227009353626961,-0.000474003482908714
"17:30828685:C:T",-9.2965410092738e-05,4.69005421033231e-05,4.62902980293833e-05,8.81454465622156e-05,0.147580385167002,-3.21812803498744e-05,6.85156616482274e-05,-7.80214743576479e-05,-0.000157954330471277,-1.87632592947296e-05,-0.00284873001151631,4.87607600483386e-05,0.000185379622923421,-4.08301794738719e-05,-5.22952838073465e-05,-9.17527890953451e-05,0.000376636600111446,0.000140075925555649,-0.00406248657416075,4.69005421033231e-05,-0.00130450986450903,-0.00206941706854025,-0.000154354212598129,-3.80097943519786e-05,7.25658671054674e-05,-0.0005731959500892,-0.00117918240407811,-0.00344668439770324,-0.00272259365361904,-0.000446428609943261,0.000120611059297282,2.68520252788562e-05,-0.00144305810961232,-0.00263866543897695,-0.00343045994261981,8.71338227508289e-05,-0.00390826384922072,-0.00276108118419671,-7.92543007799296e-05,-0.000804717415539891,-0.00228601459390987,3.4033532039679e-05,-0.000160285020961659,-0.000198733163784048,-0.00202393834874126,-0.00446382666540135,-0.0002779490379341,-3.36625222461251e-05,-0.00320622152616945,0.000105254871569649,-0.00239572024891199,-4.94714408736385e-05,6.50084938680351e-06,-6.48926394362093e-05,-0.000216155995676814,-2.6088284199588e-05,-0.00106123826483451,-0.00195371985245174,-0.00266379710599107,-1.25886104234141e-05,-0.000332413611040749,-0.00355284666791622,-0.00184708496042596,-0.000572859137041526,-0.00406318090552116,-1.25886104234141e-05,2.86184255822164e-05,3.22088654485242e-05,-0.000950431636061566,4.69005421033231e-05,-0.00292048542372125,0.000113899177328847,-0.00113868914874793,-0.00287853946198169,-0.000845833665073847,-0.00339981779167253,-0.000372014634861806,7.25658671054674e-05,-0.00286577011125466,3.22088654494124e-05,2.86184255822164e-05,-0.00113535549303379,6.50084938680351e-06,-4.08301794738719e-05,-0.00380030815470445,2.34347838645732e-06,-8.04735325585781e-05,6.50084938680351e-06,6.86016358928399e-05,-0.00374138120959788,-2.02658133652278e-05,2.68520252788562e-05,-0.00118426503996361,-0.00106093686783915,-0.00266149179792841,-0.00119395835391867,2.51044310441983e-05,-1.87632592947296e-05,-0.00156323222821708,-1.47329367754523e-05,-0.000986863205787003,-6.62748603401653e-05,-0.0030207169421308,-6.00747219969833e-05,-1.25886104234141e-05,-0.00145826273794825,-8.28721002763544e-05,-1.41574725454063e-05,0.000147267492711656,-0.00233173407503262,4.50599635222204e-05,-0.000287551439646982,-3.21812803498744e-05,-1.87632592947296e-05,-0.00112261126668045,3.04039355851771e-05,-0.00108030942067217,-0.00268195411932393,3.22088654485242e-05,2.34347838556914e-06,0.000152192563228404,-1.87632592947296e-05,-0.00248912511131749,-9.29654100918498e-05,-3.21812803498744e-05,2.51044310441983e-05,-2.13339894648001e-05,-0.00269997775416186,-1.41574725454063e-05,-2.29369332984675e-05,-4.4795910305595e-06,2.33753456129193e-05,-0.00026260193369243,-0.000754893707549442,-0.00184294663902307,-0.00526173526367568,-0.000220712888904906,2.34347838556914e-06,-0.000528226820049937,5.44624246803238e-05,0.000188399168862929,1.32298707455902e-06,-0.00119395835391867,-9.65201159432993e-05,-1.87632592947296e-05,-0.000237955648192845,-0.00116616463524011,4.84946335355119e-06,-0.000492639105961423,2.51044310441983e-05,-0.00272770720439475,-0.000181606099702414,-0.00269392143497882,-2.60882842004762e-05,1.13267936274752e-05,3.21571201933324e-06,-2.43374931727658e-05,2.34347838556914e-06,-3.02280161106339e-05,-2.13339894665765e-05,7.25658671054674e-05,2.33753456129193e-05,-0.00542713950876195,-3.51275126790895e-05,-0.00269392143497882,-0.00116616463524011,-2.60547764705521e-05,9.02052480347137e-05,-0.000528226820049937,-0.00242771942255349,3.22088654485242e-05,-0.000313031990295087,2.59163799052331e-05,-0.00338841260458711,-0.000287775094117038
"17:30828777:T:C",-5.22663908499865e-05,-0.00169153029671865,-0.00159636233552884,4.64343028285796e-05,-3.21812803498744e-05,0.223047661893775,3.69072047217145e-05,-4.3821231192176e-05,-0.00707828656074128,-1.0289206679559e-05,-0.00247627337436551,2.62607718592989e-05,-0.00116248946056619,-2.26859563552395e-05,-2.88838463280428e-05,-5.15056971517325e-05,-0.005839545988227,7.19932840853588e-05,-0.00228344414883441,2.52474957518345e-05,-0.00477474090762442,-0.000828878383763332,-0.00304070348732122,-2.10102682656199e-05,3.86312174853742e-05,-0.00483590199472061,-0.00161684990683941,-0.00251920331229805,3.96985523414273e-05,-3.29851721811991e-05,6.26804067831443e-05,-0.00217676420752255,-0.00385486714629302,3.86312174853742e-05,-0.00156081720822598,4.63007710722607e-05,-0.00014835299569782,2.62607718592989e-05,-4.45824735271216e-05,-0.00422274206999695,2.42431183865577e-05,1.86414183547257e-05,-2.05852518790905e-05,-0.005261064674424,4.14767435508168e-06,-0.00387994770377009,-0.00528559483981894,-0.00210823516580838,-0.000377294350712098,5.52675376752632e-05,-0.00880566095579116,-2.7184293253768e-05,3.70528725834873e-06,-3.57570885078928e-05,-0.000809859044629491,-0.00154430493495905,-0.000252873199222847,-0.000439834109211112,-0.00270153616700952,-0.001711347410704,-0.0021925522147086,-7.61215708067198e-06,-0.00417188323570006,-0.000648398783558157,-0.00480342531786704,-0.00162082297495036,1.56391736005901e-05,1.76314827617929e-05,-0.0036663293801027,2.52474957518345e-05,2.83144501054267e-05,5.92987503615916e-05,-0.000144731528304298,-0.00207088552325363,-0.00329674732880658,-0.00170117277961346,-0.00369723097050034,3.86312174853742e-05,-0.00221665963188933,1.76314827617929e-05,1.56391736005901e-05,-6.9348371741107e-05,-0.00194390734428396,-2.26859563552395e-05,-0.000705634870204364,1.89348271639744e-06,-4.53359915484342e-05,3.70528725834873e-06,3.65239225192937e-05,-0.00238363052723489,-1.11647665104186e-05,1.46565699239432e-05,-4.8251070191796e-05,-0.00420749606559934,8.32971294757456e-05,-0.00346986372310543,1.36828494881058e-05,-1.0289206679559e-05,-0.00161281120478929,-0.0027139783338388,-0.0027878537656667,-3.66023967357521e-05,2.52474957518345e-05,-0.000189292095073235,-6.70263166657747e-06,-0.00466756181362005,-4.68203107741871e-05,-7.6121570797838e-06,-0.00649297243399971,4.85876520892603e-05,2.42431183865577e-05,-0.00466918427483787,-1.75592542204228e-05,-1.0289206679559e-05,-8.51301664450688e-06,1.66307731364057e-05,-0.000156554486874683,-0.00141627375048481,1.76314827617929e-05,-0.00149398638913478,-0.00213875275914432,-1.0289206679559e-05,-0.00404025657475504,-5.22663908499865e-05,-1.75592542204228e-05,1.36828494881058e-05,-0.00160146341342049,-0.00142437799687078,-7.6121570797838e-06,-9.3869668998714e-05,-7.23413110463866e-05,1.27179012840983e-05,-0.00477589809101708,-3.13693215634459e-05,1.56391736005901e-05,9.13509867750406e-07,2.57662333638109e-05,-0.00149398638913478,-0.000120044192480684,2.93550705494638e-05,-0.00577353164782313,-6.51856928453043e-05,-0.00869355571439812,-5.4500049848194e-05,-1.0289206679559e-05,-0.00463015700391534,-0.00159285453768288,2.76604118898405e-06,-0.000104214027376592,1.36828494881058e-05,-0.00289545982435779,-0.0005570521514775,-0.00160219280424156,-1.3968934986508e-05,7.01147911907896e-06,1.83548645527054e-06,-8.53973925156737e-05,-0.00149398638913478,-0.000103681289338908,-0.00169740749441072,3.86312174853742e-05,1.27179012840983e-05,-0.00440060488333494,-1.93016816636415e-05,-0.00160219280424156,-0.00159285453768288,-0.00161506176779724,-0.00393640348193447,-0.000120044192480684,2.62607718592989e-05,1.76314827617929e-05,-0.00505409017228686,-0.00159324080053835,-0.00349570549904499,-0.000852765434733449
"17:30829882:C:T",-0.00763352082914803,-6.38113906221704e-05,-0.000139324032193855,-0.000122756312006977,6.85156616482274e-05,3.69072047217145e-05,0.315370181560118,9.10959570870062e-05,0.000169630974886203,-0.00144331623837868,-0.000895194887622353,-0.00118192673427497,-0.00122635159924744,5.00542146442129e-05,6.03076270531133e-05,-0.00460562150204069,-0.00443682839602833,-0.000937603802247722,-0.00137667607113023,-0.000580683601425491,-0.00436516069799664,-0.00544283853163563,-0.0038694042304126,4.57948857448542e-05,-0.00010138217309752,-0.00022610610916951,-1.55929496381546e-05,-1.55929496372664e-05,-0.00339551109527125,-0.00134465023585051,-0.00221581285480532,-3.67953544202493e-05,5.79617847877856e-05,0.000203615828056058,-0.000310546806097989,-0.0001267677262069,0.000192524256126703,-6.6902328030416e-05,-0.00134627775744356,-0.00345708112304477,-6.07646539148021e-05,-0.00158039982713998,-0.00260048877292984,-0.000261842117117439,-0.00694691708752693,-0.00281401370091228,-0.001020776823494,3.91768668084325e-05,-0.000120063370700585,-0.00153975484662272,-0.00327772098919832,-0.00211129915615338,-1.02463528843799e-05,-0.0019550180138701,-0.000354474694378659,-0.00434681681507332,-0.000447624751700459,-0.00143205147562941,-0.00161153717380769,1.33834919111564e-05,-0.000774284612557352,1.58265892649112e-05,-0.00235343246949027,-0.00166801637864467,-0.0020618603439515,-0.000749359671387673,-0.00259153415974733,-4.55317286265355e-05,-0.00273839630719142,-0.00416067967235723,-0.0031227563632763,-0.00016303937421025,-0.00134648686400496,-0.000179238124790704,-0.00163917461633023,-0.00133875802846539,-0.00176006095696124,-0.00010138217309752,-9.16547434202108e-05,-0.0013317079121089,-0.00124260450212077,-0.00221618382887279,-1.02463528843799e-05,5.00542146442129e-05,-0.00567552956585082,-0.000353274120806546,-0.00115097504164652,-1.79144606944348e-05,-0.00466646746628463,-0.00382768307413217,2.52596993499665e-05,-0.00146595359570068,-0.00231794317874101,-0.00282175909569649,-0.00410507493737633,-0.00273116919345906,-0.00356141219309247,2.29509249436433e-05,-0.00354696718412528,-0.00408345980139124,-0.00610731210339477,-0.00471300300842081,-6.38113906221704e-05,0.000252208878617211,-0.00206585435683593,-0.00174297872268303,9.82123121708867e-05,1.58265892649112e-05,-0.000219404292938208,-0.00431257281768982,-0.00675351724537698,0.000286891044704696,-0.00200065583767461,2.29509249436433e-05,1.82350548625365e-05,-4.2577205084271e-05,-0.00169119959046959,-0.00498711344033609,-0.0015641036025551,0.000283768499956594,-0.000228826884254296,-0.00501393170096787,-0.00802537867288944,-0.00496678982328547,-0.00200065583767461,-0.00356141219309247,-3.84869048541958e-06,-0.0051261265859357,1.58265892649112e-05,-0.0021533765730446,-0.000423927058649909,-3.11772644776553e-05,0.000267411988444266,-0.00273475715474714,-3.96653780967426e-05,-2.50764117470936e-06,-0.014368263779283,0.000283768499956594,-0.00174143884162703,-0.00140039778630108,-0.000288773993378122,-0.00155221459206256,-0.00273116919345906,-0.00255385031475885,2.29509249436433e-05,0.000246939086329334,1.58265892649112e-05,-7.63006995985194e-06,-0.00177214217082167,-0.00356141219309247,-0.0032439759657592,-0.0148249611107092,-0.00516725901075743,-0.000374702647301994,-0.00898201810595545,-5.05075197221316e-06,-0.000745862481040582,0.000283768499956594,-0.00177266113166308,7.36886279906201e-06,-0.00010138217309752,-3.11772644776553e-05,0.00024627206187855,-0.0024721548620219,-0.00516725901075743,1.58265892649112e-05,-0.00183446236566098,-0.000126355273305734,-0.00174143884162703,-6.6902328030416e-05,-0.0015641036025551,0.000306499912477776,0.00026261078753187,-0.00870164165822995,-0.0065054378102305
"17:30829894:G:A",-0.000126077447172079,6.28558606665663e-05,-0.000181681106797171,0.000118326474201957,-7.80214743576479e-05,-4.3821231192176e-05,9.10959570870062e-05,0.163193712972267,-0.000214290976408016,-2.53435580557237e-05,-0.000641125284347233,6.52853151565935e-05,0.000448206493523173,-5.49819670476737e-05,-7.10044053455761e-05,-0.000124537676175152,-0.00656515056318696,0.00018782848636878,0.00015582146436266,6.28558606665663e-05,-0.000934137750076225,-0.000955289970629103,-0.00106973415776945,-5.13429855102387e-05,-0.00477210485668511,-0.0065289968483393,1.28081828094651e-05,1.28081828121296e-05,-0.00260113691837027,-7.97274646240353e-05,0.000161608015678105,3.58553596404576e-05,-0.00366212735779392,9.71949800403493e-05,-0.0111431937056814,-0.00291505196082831,-0.00179538611807217,6.52853151565935e-05,-0.0001069785401695,-0.00155338308069997,-0.00217428929911545,-0.000426865398406306,-0.000241965983064141,-0.00176237761364284,-0.00336829603322464,-0.00278725551417303,-0.000258867340941826,-4.57329874361534e-05,-0.000103248850495063,-0.00156413271957945,-0.000635234170712096,-0.00112512080766258,8.44602409610928e-06,-0.00830367848730518,0.000181707281189603,-3.59559106568597e-05,0.000109191477038806,0.000280366378769159,-0.000608683618898986,-1.73459986978486e-05,0.000133845244975284,-1.93782380781826e-05,-0.00258011082655596,5.54280203068913e-06,-0.00645982098026199,-1.73459986978486e-05,3.81568990626135e-05,4.28355810431214e-05,-0.00175186289829288,-0.00297493066688759,7.0223350518539e-05,0.00015279117678979,-0.000354570330517667,-0.00393304811307171,-0.000854968714953941,-0.00269696724280699,-0.00258242233496819,9.71949800403493e-05,-0.00378518032794695,-0.00284233384743082,3.81568990626135e-05,-0.00110109637405831,8.44602409610928e-06,-5.49819670476737e-05,-0.00159900304986671,2.00360635993491e-06,-0.000296188629879346,8.44602409610928e-06,-0.00342037480090429,-0.00317167268024399,-2.72893687878195e-05,3.58553596404576e-05,-0.00114229751721151,-0.000458624283481868,0.000220141090011339,-0.000610100532384195,3.35784836584807e-05,-2.53435580557237e-05,-0.000449543923036089,-0.00110218071364621,-0.000244092467625912,-0.000939176688267374,6.28558606665663e-05,-0.000173201047883431,-0.00116798320864042,-0.000899098513013286,-0.000111600649222332,-0.00381109078411068,-0.00234594932842569,0.000123756634504701,6.04522241385297e-05,-0.000490580151158326,-4.3821231192176e-05,-2.53435580557237e-05,-2.13883399391435e-05,4.04835029561568e-05,-0.000172334639118255,-0.0018107097186002,4.28355810431214e-05,2.00360635815855e-06,-0.00599406791776413,-2.53435580557237e-05,-0.000160975789905926,-0.000904155700281351,-4.3821231192176e-05,3.35784836584807e-05,-2.98170888868299e-05,-0.00176754520376221,-1.93782380772944e-05,-0.00251715773484751,-6.83962147096651e-06,3.13258785569204e-05,-0.000432399440009057,-7.62964950533629e-05,3.81568990626135e-05,2.07764557913492e-06,-0.0014153630944973,2.00360635815855e-06,-0.000260090079138742,-0.00180330605527423,-0.00207338645572985,-0.00337437752583458,-0.000610100532384195,-0.000771072652995031,-2.53435580557237e-05,-0.000450580285869862,-1.93782380772944e-05,6.30029309345304e-06,-0.000307419682028964,3.35784836584807e-05,-0.000821040079736157,-0.00143948891541257,-0.00165435964039773,-3.59559106577478e-05,-0.00108709427609099,4.17762305993108e-06,-0.00347778132397902,2.00360635815855e-06,-0.000303268371334653,-2.98170888886062e-05,9.71949800403493e-05,3.13258785569204e-05,-0.000523505480217068,-0.000910977557402326,-0.00165435964039773,-1.93782380772944e-05,-0.00348838663808859,0.000121027148103359,-0.000260090079138742,6.52853151565935e-05,4.28355810431214e-05,-0.00040897900213821,3.36849023128138e-05,-0.000247752533897305,-0.00134328399846062
"17:30831245:C:T",-0.00356059266278308,0.000121011051124498,-0.00109612012760163,0.000227284225077007,-0.000157954330471277,-0.00707828656074128,0.000169630974886203,-0.000214290976408016,0.281254501766697,-5.08818823412582e-05,-0.000555322378930967,-0.000276100498585841,-6.01768175423345e-05,0.000398130506287231,-0.00117068260034436,-0.00705753429164346,0.000128343303274825,-0.00625055246448625,-0.00174708824522796,-0.00185690056598276,-0.00132761102321899,-0.0067864753059661,-0.00490621307735406,-0.0032000313713958,-0.000237870913842642,-0.00239103779532845,2.18496309809524e-05,-0.00154728363624379,-0.00219875164722794,-0.000672328272488976,-0.00181489855958894,6.83378758159492e-05,-0.00294356051470324,0.000185810018563437,-0.00217130646534747,-0.00156826245792274,-0.0051382787379568,-0.00247986535617351,-0.000216811229364566,-0.00286402089325177,-0.00567578805156455,8.43981728895216e-05,-0.00134938949315622,0.000187226809841512,-0.000357483516453705,-0.00107159952452873,-0.00745310693658574,0.000117706533925066,-0.00304023727064529,0.000265986293685572,-0.003873692981335,-0.00275211883317361,1.44084037163594e-05,-0.00255014503357032,-0.000274972167760623,-0.00433340218485512,-0.000943107270305887,-0.00386205406927775,-0.00323988616644799,-1.84033905474834e-05,-0.00498306952023775,-0.00167337553429014,-0.00128832263110379,-0.00306905124596124,-0.0012489018613473,-0.00134387312589723,-0.00157780845618571,-0.00246398477309118,-0.00387847613549308,0.000121011051124498,-0.00216913007069586,0.000291228358493711,-0.00012836146468409,5.0829593284174e-05,0.000349964246926682,-0.0059948401665304,-0.000547150675832775,-0.00185440082650334,0.000131105548971888,-0.00205876679929773,7.22881851862311e-05,9.17676729415007e-05,1.44084037163594e-05,-0.000109581728747976,-0.00588593674093207,-0.0013934683363992,-0.000219303133333071,-0.000145113058115598,0.000176855585512392,-0.00279683332096559,-5.41708794541407e-05,-0.00212850104670537,0.00010692201836715,-0.00589923955662552,-0.00133963433688766,0.000290263764220811,-0.000287514575138204,-0.00166832348135237,-0.000260917414864004,-5.52027799916033e-05,-0.00620009158423418,-0.00119086003052171,-0.00185690056598276,-0.000884632203049129,-0.00134387312589723,3.56730386559256e-05,-0.00022420378304755,-0.00300763299878515,-0.000789408293462301,-0.00151551989998122,-0.00154334913785004,-0.000177774094475502,-9.09553124346374e-05,-0.00166832348135237,-0.00127711261648944,-0.00180873731307774,-0.00577271277904323,-0.00178098599016918,8.03176385604232e-05,-0.00252583415953644,-0.000725366710191189,-5.08818823412582e-05,-0.00162766738580178,-0.00119051769073764,-9.09553124346374e-05,-0.000287514575138204,-0.00134731762196694,-0.00185780159193483,-0.00326031704473362,-0.00183403306282948,-0.000186391040096545,-0.0021199314173197,-0.000224599113023416,-0.000977468359630862,-0.00242508455247137,3.5444119310668e-06,-0.00366644855447884,-0.00252583415953644,-0.00558801060735714,0.000138025160406841,-0.000884872254406588,-4.96387236204043e-05,0.000290263764220811,-0.00106044172019892,-0.00166832348135237,-7.42891888352304e-05,-0.0013186569641519,-0.000148791279135807,-0.00550541771206969,-0.000287514575138204,-0.00523470430057049,-0.00174928503430216,-0.00146778867848685,-0.000645465595855654,-0.00172118509913766,7.12687402248946e-06,-5.90552305856917e-05,-0.00252583415953644,-0.00549862001692691,-0.00144326170295805,0.000185810018563437,-0.0021199314173197,7.24781282661624e-05,-0.00111578074842633,-0.00146778867848685,-0.0013186569641519,-5.77151722769287e-05,0.000231947238432895,-0.00558801060735714,-0.00201411725519396,8.03176385604232e-05,-0.000544143431190136,-0.00269326096656108,-0.000692579790570136,-0.00255086287957607
"17:30831522:G:C",-0.0058698391973051,1.54741757896204e-05,1.6693115641786e-05,2.89900012901967e-05,-1.87632592947296e-05,-1.0289206679559e-05,-0.00144331623837868,-2.53435580557237e-05,-5.08818823412582e-05,0.166455374853791,-5.33726520313138e-06,1.61181202766869e-05,-0.000110721914168721,-1.33470886165554e-05,-1.68180845845356e-05,-0.00120832286019557,-0.00125278014337749,-0.00426327294750095,3.88062390586086e-05,1.54741757896204e-05,-0.00144527824128549,-0.00112066015241119,-0.00120074777824541,-1.23496354866859e-05,2.3969296065296e-05,-0.001855143893148,3.44374315019991e-06,3.44374315197626e-06,-0.00789006294075367,-1.92364231388353e-05,3.98099915317474e-05,8.92194438861793e-06,-0.00573223041692117,2.3969296065296e-05,-0.00558346779937491,2.89893015175124e-05,-7.97216619314867e-05,1.61181202766869e-05,-2.57868147164331e-05,-0.00484857043355191,1.48369395649439e-05,1.14177683450123e-05,-0.000674119061359946,-0.00107114638108197,2.87559852552022e-06,-0.000205689377697382,5.08876060418828e-05,-1.08127263507285e-05,2.49100699827309e-05,-0.00195607123278929,-0.0012156056797421,-1.58127515739181e-05,2.27137522479381e-06,-2.06270696869737e-05,0.00011294050101629,-8.13654369924421e-06,-0.00178452006674501,0.000170295118851804,-0.00588886391441434,-3.92797764359187e-06,3.36083931351538e-05,-4.47897512501072e-06,-0.00152599529659359,-0.00579641854267177,-0.0044106800804844,-3.92797764359187e-06,9.53596467834217e-06,1.07837707066238e-05,-0.00178471408313374,1.54741757896204e-05,1.74265591850187e-05,3.75109184886924e-05,-0.00530816825236524,-0.00527631821776353,-3.62574865668819e-05,-0.00530091743297767,1.89945571360539e-05,2.3969296065296e-05,-0.00478601070986073,-0.00225733594784039,9.53596467834217e-06,5.77318664252147e-06,2.27137522479381e-06,0.00036338394363522,-8.10553383709944e-05,1.3123260904635e-06,-0.000501373457871601,2.27137522479381e-06,2.2602327941712e-05,0.000165756119129057,-6.62502903825413e-06,8.92194438861793e-06,1.31112156518398e-05,-0.00169061918906355,5.41103380040653e-05,-0.000682415586384266,8.31437497694765e-06,-6.0970229984747e-06,-2.68338381266275e-05,-4.12813892136654e-06,-0.00111402648509795,-0.00585590565690453,1.54741757896204e-05,-0.00165459680226299,-3.92797764359187e-06,-0.00119611331330471,0.000364409982092972,-4.47897512501072e-06,4.86245283237707e-05,3.04134415651802e-05,1.48369395649439e-05,-0.000487542674582286,-1.0289206679559e-05,-6.0970229984747e-06,-5.02408655478348e-06,1.0156538506223e-05,-0.00163248930572735,-0.00468025491813773,1.07837707066238e-05,1.3123260904635e-06,5.03057592622369e-05,-6.0970229984747e-06,2.57058900876572e-05,-0.00598593594208019,-1.0289206679559e-05,8.31437497694765e-06,-6.45774370600094e-06,-0.00471685483426132,-4.47897512501072e-06,-7.02367483462751e-06,-1.08128589548784e-06,7.71315590775146e-06,-8.55179315841781e-05,-1.82849292738041e-05,9.53596467745399e-06,5.58912898185326e-07,7.74221081165649e-05,1.3123260904635e-06,-0.00158438182182241,1.80912717819837e-05,6.209293640147e-05,-0.00534300444327496,-0.000682415586384266,-0.00626446585770246,-6.0970229984747e-06,-7.74747355674066e-05,-4.47897512501072e-06,1.69450634412982e-06,-0.0015606068938645,8.31437497694765e-06,4.28827700043044e-05,9.46256835225867e-05,-0.0048070425808282,-8.13654370013239e-06,-0.00548384379776401,1.12371728366867e-06,-0.00542019052498777,1.3123260904635e-06,-0.0015609294522676,-6.45774370688912e-06,2.3969296065296e-05,7.71315590775146e-06,-7.73050247628859e-05,-1.13305771956007e-05,-0.0048070425808282,-4.47897512501072e-06,-0.00542935810035061,2.96980217022735e-05,-0.00158438182182241,1.61181202766869e-05,1.07837707066238e-05,-0.000380304611938165,9.04754194408497e-06,4.11552670804838e-05,4.82866898714462e-05
"17:30831628:T:C",-4.36962519057005e-05,5.16719631260543e-06,-0.00111210203171375,-7.15894413971796e-07,-0.00284873001151631,-0.00247627337436551,-0.000895194887622353,-0.000641125284347233,-0.000555322378930967,-5.33726520313138e-06,0.469333720635499,-0.00304256455973562,-0.00380259179536591,-9.15013876046089e-05,-0.0127258526475647,-4.28009763799864e-05,-0.00316687694333639,-0.00702179672427228,-3.14309130438062e-05,-0.00412978689636834,-0.00810431455021288,-0.0131135554882835,-0.000140030930785962,-0.00975992145584925,-0.00254668025968741,-0.00776089276932579,-0.00413566088358053,-0.0113187644765249,-0.00287590518394953,1.48187503947739e-05,-0.00241205157121449,-0.0016584939140909,-0.00195716727161788,-0.0031971043894794,-0.00249745506558297,-0.00569204761525821,-0.00508869782522936,-0.00134198129569274,-3.47784094385517e-05,-0.00354298509359507,5.20094450529029e-06,-0.000947794185489848,-0.0105160692616457,-0.0128654776188135,-0.00514180120446106,-0.00504470274528668,-0.00307094079395798,-0.000242636332221657,-0.00685110314978576,-0.0115308284532691,-0.0060584991853565,-0.00834409806300496,1.53630370203217e-06,-0.00215949244478075,-0.00352997715453274,-7.16338167272568e-05,-0.0112000473779448,-0.00150406003177217,-0.00335284231022603,-6.91421656897617e-05,-0.00114371284310888,-0.00313904371893514,-0.0073369761880957,-0.000858062413584548,-0.00562964488992979,-0.00189801068470352,4.65230842117137e-06,-9.28226036833735e-06,-0.00126576962380476,-0.000397506176404328,-0.00150463271704115,-0.000812981143588409,-0.0046694033182666,-0.00520967172766484,-0.000925076902564825,-0.0019238430947679,-0.00110300210702352,7.65370864437287e-05,-0.00531402237476586,-0.0076459717857178,4.65230842117137e-06,-0.0037261927794594,-0.00207113735125919,-1.40237585641856e-05,-0.00124394672133032,-0.000233006832076832,-0.00117348861564892,-0.00207113735125919,5.44358329364059e-05,-0.00510990845183912,-5.88430501125004e-06,-0.00278226336985021,-0.00418714802413955,-0.0128153714711852,0.000105948911794052,-0.000239405959495897,-0.00163610826330274,-0.00145957088987814,-0.00216963748359689,-0.00139132412683995,-0.0106500407466124,-9.55401131479405e-05,-0.00118103607013254,-0.000325314657355413,-0.00744502127635993,-0.00193096232067091,-3.72399894583708e-05,-0.000122285677462308,7.20377347773749e-05,-0.000957873665661246,-0.000860307669849902,-0.000170985407291546,-7.43851445497157e-05,-0.00145957088987814,-0.00182460898866932,-0.00114982093877458,-0.00633291948079195,-0.00156041802690954,-3.23283928480578e-05,-0.00209599414361605,0.000123194712791097,-0.00527935015546799,-0.00136691107826792,-0.000184900002821564,-7.43851445497157e-05,-0.00163610826330274,-0.000225960926915292,-0.00171719428459705,-0.00121986139355901,-0.000552978102360768,-0.00167080706429523,4.1138540805008e-06,-0.000101884226702431,-0.000285031691436899,-0.000241641154343775,4.01386838433382e-07,-0.00624341848711651,-0.00209599414361605,-0.0066774995569463,-0.000936902720215294,5.99033845842811e-05,-0.000724307087213383,-0.000332936367747116,-0.000269733948575102,-0.00145957088987814,-0.000226855181967522,-0.00186944753250096,-0.00556057068884908,-0.00657792754908559,-0.00163610826330274,-0.0038105130244408,-0.00540204332517202,-0.00199494985419468,-0.000496795071796896,-0.00317321617721955,-0.00250115875476631,-0.00069132710594122,-0.00209599414361605,-0.0061384500487276,-0.000312926650995138,-0.000255741932355669,-0.00138709117254887,-0.000427035340526238,-0.00817719193241651,-0.00199494985419468,-0.00186944753250096,-0.000970786618951003,-0.00427574712777634,-0.0066774995569463,-0.00304256455973562,-3.23283928480578e-05,8.16702371038147e-05,-0.00167697975113956,-0.00525915550060141,-0.00437965396039086
"17:30833016:C:T",7.57506125568241e-05,-0.000650587926933177,-5.43497745439936e-05,-8.23587027971584e-05,4.87607600483386e-05,2.62607718592989e-05,-0.00118192673427497,6.52853151565935e-05,-0.000276100498585841,1.61181202766869e-05,-0.00304256455973562,0.221776924100499,-0.00570147393769549,-0.00123171605225103,-0.00275997919929249,7.4463595882257e-05,-0.00131529566530286,-0.000523079122851655,-0.000114327629351152,-4.33595575852763e-05,-0.000210228436103854,-0.00404529109262786,0.000121119934677338,3.23716817822728e-05,-6.81606334760332e-05,-0.00358230323734254,-1.04280976982452e-05,-1.04280976964688e-05,-0.00423114386191159,5.01475600342971e-05,-0.000115783681881254,-2.50790646072474e-05,-0.000298417981022148,-6.81606334760332e-05,-0.0106643845332313,-0.00116746125278322,-0.00267130931127912,-0.00442226019964398,6.65760424416462e-05,-0.00139622168708264,-0.00760519040602237,-3.27747723876115e-05,-0.00225994549172004,-0.000207614436773973,-1.37281474765771e-05,-0.00149630847359017,-0.00147293286796568,2.7817163615218e-05,-0.00030913503735075,-0.00373786183557723,-0.00228845083174711,4.00667893005746e-05,-6.86545936190441e-06,5.14396816084783e-05,0.000173058703296647,1.98342797439466e-05,-0.00472049599414071,-0.00374640086062517,-0.00228222995099436,-0.0030723267141326,-9.92362459575347e-05,1.12795477154037e-05,-2.78214601872051e-05,0.000171587763357905,-0.00301598770079892,-0.0030723267141326,-2.69667894219339e-05,-3.08141857994215e-05,-0.00216276675038873,-0.000650587926933177,-4.94538724771232e-05,-0.000108224184548256,-0.00315953283626769,-0.000520756020615742,9.06862761453908e-05,-0.00323280187393582,-0.00311619387698059,-6.81606334760332e-05,-0.000537586485905628,-3.08141857985333e-05,-2.69667894219339e-05,-1.99529841626855e-05,-0.00342185776322967,3.53159438661876e-05,-0.0026435084219667,-6.23991876924634e-06,-0.00205140630311806,-0.00342185776322967,-0.000424648866537147,-0.00337091013102153,1.7691803494202e-05,-0.00110680751641823,-4.03100046542093e-05,-7.6441666781335e-05,-0.000160402445827046,0.000168603897897412,-2.32147307421826e-05,1.61181202766869e-05,-0.0030469034120415,7.75187759405327e-06,-0.00180119039590299,-0.00273051736055674,-4.33595575852763e-05,-0.000420694543740829,9.62629451795038e-06,-0.00331993791497176,7.03545029221431e-05,1.12795477162919e-05,-0.00014345521514425,-8.69327497001748e-05,-4.13785014012902e-05,0.000222040233304632,-0.00288369147624046,1.61181202766869e-05,1.29123543040066e-05,-2.88783458888275e-05,-0.00354421537284821,-0.00313390115450929,-3.08141857994215e-05,-0.0013635271522352,-0.000149149837064932,1.61181202766869e-05,-0.00489127008619761,-0.00263648892864587,-0.00288369147624046,-2.32147307421826e-05,1.47923761728563e-05,-0.00318615181162851,1.12795477162919e-05,1.64949829528638e-05,1.03951525609602e-06,-2.13733578782183e-05,0.000204973599467806,4.73567397545338e-05,-2.6966789422822e-05,-1.6848761470456e-06,-0.00241820305751705,-0.0013635271522352,-0.00341012690021358,-0.00102904701643158,-0.000186370530682822,-0.00740979950931919,0.000168603897897412,-0.00249428047108857,1.61181202766869e-05,0.000187491010306573,1.12795477162919e-05,-5.11721772245011e-06,-0.00334123338741943,-2.32147307421826e-05,-0.00355905856082828,-0.00230624303612981,-0.00319376004529826,1.98342797430584e-05,-0.00305183353745253,-3.39048759556704e-06,-0.00726219095558456,-0.0013635271522352,-0.00334679701217233,1.47923761701918e-05,-6.81606334760332e-05,-2.13733578782183e-05,0.000186950203421965,2.93542092038024e-05,-0.00319376004529826,1.12795477162919e-05,-0.00725039288803231,-8.46312582094555e-05,-0.00341012690021358,-4.53654902701217e-05,-3.08141857994215e-05,0.000239653062666711,-0.00123670160845535,-0.00455600440312054,-0.00269933227649322
"17:30836944:G:T",-0.00140734155380517,0.000249087846878382,-0.000171436171012118,0.000478067036774554,0.000185379622923421,-0.00116248946056619,-0.00122635159924744,0.000448206493523173,-6.01768175423345e-05,-0.000110721914168721,-0.00380259179536591,-0.00570147393769549,0.236460615427931,0.000453464340594678,-0.000329683492070743,-0.000886300017312713,0.000370387183282528,-0.00125147548307503,-0.00253132560903335,0.000249087846878382,9.65731755204757e-05,-0.00835846137567842,-0.00338792442156333,-0.00118945270866622,-0.00439118170953989,-0.00302233503592708,-0.000940335302294315,-0.000207103680748943,-0.000976050386424454,-0.000677337695059066,0.0006370750416691,-0.00188428203914448,-0.00540776781461449,0.000381926313804293,-0.00103671334529176,0.000176077434820954,-0.000646167745008697,-0.00570147393769549,-0.0013717669826061,-0.000304220901060859,-0.00537387631591013,-0.0012747031657705,-0.000398260157083996,-0.000459577348132179,-0.00465401317196967,-0.00354110249919692,-0.00199021147914458,-0.00382118109448815,-3.65134915947252e-05,2.30302064556653e-05,-0.00193119320351487,-0.00423264851373339,1.99129033431333e-05,-0.000721988439361887,-0.00124342195562654,-0.000230532472366818,-0.000381863825163364,-0.0113455050708291,-0.00332297232972723,-0.000358771228528454,-5.6170698382374e-05,-9.76580692899631e-05,-0.00231070828898039,-0.00134167804040697,-0.00221011377193658,2.44083517424443e-05,-9.60393390156966e-05,-0.00146055947420454,-0.00435976482625833,0.000249087846878382,-0.00227441010280405,-0.00334893952015136,-0.0018810719448199,-0.0049550494615036,-0.00479036965032975,-0.00111088353932765,-0.000889454757375674,-0.000120784903632654,-0.00678853632520049,-0.000828210054496736,0.000141247378771858,-0.00147570130252284,-0.000278989573017974,-0.00023189608836649,-0.00259535536709432,-1.15218104106418e-05,-0.000217622001118301,-0.000278989573017974,-0.00160223404828841,-0.000518495720808865,-0.000114979256952807,0.000135484223671156,-0.00157273474755737,-0.00253249720878213,-0.00112034456726295,-0.00240362772387392,0.000129786197471837,-0.000110721914168721,-0.00241252841964412,-0.00106573053759806,-0.00474313835535778,-0.00219044452202422,-0.00196761958493408,0.000342593027870208,-0.000358771228528454,-0.0055706836782119,-0.000471666990017994,-0.00355695179211324,0.00030136940767278,-0.00149811580201753,0.000242777870155031,-0.00215326781931235,-0.000126462302642238,-0.000110721914168721,-0.00042014046415062,0.000147076786053191,-0.000959708432257678,-0.00360359764790052,-0.0026316960243653,0.000340159906408566,0.000434829646981605,-0.000110721914168721,-0.00162373381444958,-0.002195614883437,-0.000126462302642238,0.000129786197471837,-0.000434284183199019,-0.00373706145900643,-0.0011970102527199,-0.000286671844437869,-0.000225756908621477,0.000124152202141126,-0.000196928726298395,0.00012111092091871,-0.00259565566086017,4.89448392926306e-06,-0.000192082900315249,0.000340159906408566,-0.000919645220814225,0.000275057795649403,0.000329981178825989,-0.000101150058433142,-0.00299661878227209,-0.00194459807927228,-0.000110721914168721,-7.89127950522328e-05,-0.000379521654354065,1.48499855425754e-05,-0.000915657491489696,0.000129786197471837,-0.00554996246432093,-0.00011878868277293,-0.00406545789711954,-0.0023544328863121,-0.00227678468526626,-0.00172705972656395,-4.48941276518511e-05,0.000340159906408566,-0.000906879067773758,-0.0025125957716412,0.000381926313804293,0.000124152202141126,-0.000107244746323509,-0.00105649863321755,-0.00406545789711954,-0.000379521654354065,-3.9863097689441e-05,0.000485702708641789,-0.000919645220814225,-0.00212304651535256,-0.0026316960243653,-0.000461433543379464,-0.000282949823549039,-0.00198748122465453,-0.000249289100211492
"17:30837018:T:G",-6.51437351857354e-05,3.39322234479411e-05,3.47715885720135e-05,6.41278810880053e-05,-4.08301794738719e-05,-2.26859563552395e-05,5.00542146442129e-05,-5.49819670476737e-05,0.000398130506287231,-1.33470886165554e-05,-9.15013876046089e-05,-0.00123171605225103,0.000453464340594678,0.00625606293436665,-3.68389953875337e-05,-6.42582415091297e-05,0.000235103982561213,0.000102910649427024,8.56983831933888e-05,3.39322234479411e-05,-0.000551544559161066,-0.000213734545571498,-0.000106921318558939,-2.69545694315809e-05,5.27470166131749e-05,-0.000190385518446412,7.26548056206866e-06,7.26548056384502e-06,-0.000996122500001917,-4.17999831130444e-05,8.83592905918107e-05,1.94213660176246e-05,0.000232176838153464,5.27470166131749e-05,-0.000333835483138145,6.36733957826152e-05,-0.000171040248535981,-0.00123171605225103,-5.58811676780735e-05,-7.14792693390365e-06,-0.00442176953226436,2.47431945741283e-05,1.70370576171308e-05,0.000743276630400302,4.7819811941352e-06,-0.000427339754395462,0.000109985984832583,-2.37713032049669e-05,5.37445659842817e-05,7.70170405886006e-05,0.000145440754349302,8.53205914763677e-05,4.78936667658303e-06,-4.53922512342331e-05,-0.000149676999193993,-1.82176022436309e-05,0.000311398916898575,-0.00028296919225923,0.000276598424829189,1.92618967123082e-05,7.37782928910136e-05,-9.96534905794988e-06,-2.91320871248502e-05,-0.000155387390627482,-2.05434459630283e-05,1.92618967123082e-05,2.07294228840027e-05,2.33900828394695e-05,-0.000273097870294059,3.39322234488293e-05,3.81303109788789e-05,8.32735938036677e-05,3.29134368941553e-05,-0.000339251984369682,-7.86526296181478e-05,2.7791851358927e-05,4.03802266850661e-05,5.27470166131749e-05,-0.000333835483138145,2.33900828394695e-05,2.07294228840027e-05,1.1582739453786e-05,4.78936667658303e-06,-2.9018112549295e-05,-0.000173209600157875,2.18092211223819e-06,-5.67702356795152e-05,-0.000300424783391762,4.97815817093183e-05,1.67403210626915e-05,-1.4449520564952e-05,1.94213660176246e-05,2.77918513580389e-05,0.000801771039327548,0.000121130248059487,-0.000146994723217553,1.81278282092023e-05,-1.33470886165554e-05,1.5520221693599e-05,-9.87338155500339e-06,-0.000135257189540994,-4.64030639708568e-05,3.39322234479411e-05,0.000126955343717761,-8.81258574292332e-06,0.000256282362203208,-5.85186512802593e-05,-9.9653490570617e-06,0.000108403543794822,6.72417956355531e-05,3.25637992384387e-05,-0.000196909661991818,-2.26859563552395e-05,-1.33470886165554e-05,-1.110521117198e-05,2.20522446729987e-05,-9.39096430876418e-05,0.00042584918758326,2.33900828394695e-05,2.18092211312637e-06,0.000112172632078078,-1.33470886165554e-05,-0.000213709242487425,-6.51437351848472e-05,-2.26859563552395e-05,1.81278282092023e-05,-1.47266712753336e-05,0.000405731706815793,-9.9653490570617e-06,-1.59040887908191e-05,-2.84736098521421e-06,1.68485690217324e-05,-0.000180454567868082,-3.98493695099589e-05,2.07294228831145e-05,1.17754508988099e-06,0.000174471807398824,2.18092211312637e-06,-7.25863730739462e-05,3.9561491255391e-05,0.00013961420763664,-2.47193225311193e-05,-0.000146994723217553,-6.77383455904845e-05,-1.33470886165554e-05,-0.000164046448405841,-9.9653490570617e-06,3.57200775713551e-06,-6.2793154764762e-05,1.81278282092023e-05,9.30155779794717e-05,0.000215753855703937,0.000348219095107183,-4.57476279924762e-05,8.81395469409796e-06,2.36814160015086e-06,1.87078356317372e-05,2.18092211312637e-06,-6.17381882506152e-05,-1.47266712753336e-05,5.27470166131749e-05,1.68485690217324e-05,-0.00016374976573541,-2.48443839110379e-05,0.000348219095107183,-9.9653490570617e-06,2.30520709534332e-05,6.56761595587696e-05,-7.25863730739462e-05,3.53159438661876e-05,2.33900828394695e-05,-0.000213715248005286,1.91399849791551e-05,9.03963477556502e-05,0.000106751348065259
"17:30843201:G:A",-0.0044894528677526,4.14025560706577e-05,5.92657631219851e-05,7.68522496734647e-05,-5.22952838073465e-05,-2.88838463280428e-05,6.03076270531133e-05,-7.10044053455761e-05,-0.00117068260034436,-1.68180845845356e-05,-0.0127258526475647,-0.00275997919929249,-0.000329683492070743,-3.68389953875337e-05,0.192606276259932,-0.000254796870042817,-0.000183109777110779,0.000120283737646609,-0.00213622759610299,4.14025560706577e-05,-0.00158767992111564,-0.00293656229093031,-0.0013594995305386,-3.42417091570013e-05,6.36135732943188e-05,-0.000250474482712093,-0.00150639699138733,8.87584697917276e-06,-0.00252140300386738,-5.35296899855098e-05,0.000104229963889146,-0.00237154238780679,-0.0018787748801623,-0.00274023833845138,-0.000166276195204151,7.61857129205623e-05,-0.00198191626942812,4.3038100094428e-05,-7.216129527432e-05,-0.0141893215632365,3.97827161684461e-05,-0.00192730560018006,-0.00107595418836404,-0.00125681597318739,-0.00530000886757165,-0.0037082751321651,-0.00123781174019744,-3.02442461954655e-05,-0.000149233724647146,-0.00197050853996661,-0.0033484516071014,-4.46084055942819e-05,5.85795023777536e-06,2.23699471835204e-06,-0.000203143520748128,-2.32968223761176e-05,-0.000121098877076342,-0.000530035131209416,-0.00213203237694559,-1.11980251826793e-05,-0.00225903636645786,-0.00272035386123104,-0.00338492372872601,-0.000553482428311547,-0.000344341921849178,-1.11980251826793e-05,2.54354864903661e-05,-8.66964329597764e-05,-7.37259267031831e-05,4.14025560715459e-05,4.63571842184152e-05,-0.00366779618985902,-0.005839491012674,-0.00708349145845588,-0.00116175884003322,-6.42100803940338e-05,-0.00251159827435909,-0.00181577754707529,-0.00739112839211131,2.86244892837573e-05,2.54354864903661e-05,-0.00146315396751096,5.85795023777536e-06,-3.68389953875337e-05,-0.00281964653617095,-0.00265106862883968,-0.000616807157697963,5.85795023777536e-06,6.01745884436511e-05,-0.00146954448975656,-1.81879893856873e-05,2.38644907080143e-05,-0.00151494957756437,-0.0027632096248249,-0.00301342233951907,-0.000199672396193229,2.23088689157436e-05,-1.68180845845356e-05,-0.00168119615091245,-0.00282076876658977,-0.00266322764857652,-0.000248676686184446,4.14025560706577e-05,-0.00105855424031809,-1.11980251826793e-05,-0.000507846975601023,0.000247476855957274,-1.26245267075831e-05,-0.000202898980650623,8.04012005852783e-05,3.97827161684461e-05,-0.0007322533555989,-2.88838463280428e-05,-1.68180845845356e-05,-1.40365615379778e-05,-0.00205690805639325,-0.00107889069120937,-0.00262321226354301,2.86244892828691e-05,7.51006877308669e-06,-8.46418903304169e-05,-1.68180845845356e-05,-0.00173885695072595,-0.00121919896340916,-2.88838463280428e-05,2.23088689157436e-05,-1.89473499796478e-05,-0.00273335750575487,-0.00306945573458961,-0.0028208351254051,-0.00157404370984171,2.07684037762945e-05,-0.000682777479001473,-5.1047870317511e-05,2.54354864903661e-05,-0.00356840872083275,-0.00189099652728952,7.51006877308669e-06,-0.0012090910077065,-0.000904388407314549,-0.000367961781179815,1.65719389766394e-06,-0.000199672396193229,-0.00108477761345771,-1.68180845845356e-05,-0.000224650408485516,-1.26245267075831e-05,4.37155594568139e-06,-0.00127892157829201,2.23088689157436e-05,-0.00176499545809072,-0.00194701996157232,-0.00289399377146049,-2.32968223770058e-05,-0.000726797041134652,2.89990731960899e-06,-2.14450899660434e-05,7.51006877308669e-06,-0.000330998935178961,-1.89473499805359e-05,-0.00274023833845138,2.07684037762945e-05,-0.000224280789637099,-3.15905477474843e-05,-0.00289399377146049,-1.26245267075831e-05,-2.30201250470685e-05,7.86184458689831e-05,-0.0012090910077065,4.3038100094428e-05,2.86244892828691e-05,-0.000642083138442828,-6.91456938559654e-05,-0.00183351112703622,0.000124292777966772
"17:30845428:A:C",0.000669635957034842,7.1759034529606e-05,-0.00146666558648878,-0.000851144991075081,-9.17527890953451e-05,-5.15056971517325e-05,-0.00460562150204069,-0.000124537676175152,-0.00705753429164346,-0.00120832286019557,-4.28009763799864e-05,7.4463595882257e-05,-0.000886300017312713,-6.42582415091297e-05,-0.000254796870042817,0.262160971484002,-0.00193922281090142,0.000209432568657242,2.97022872670638e-05,7.1759034529606e-05,-0.00315800264024846,0.00025653924512703,-0.000122759786242099,-6.0097443586038e-05,-0.0016585479660387,-0.00330988448900804,-0.00152140672708079,-0.00250096770692387,-0.00249507326044096,-9.37099701889821e-05,0.000181099208893087,-0.00659920273140013,-0.00555294641471349,0.000110241307093695,-0.00363298515102572,-0.00668660613606153,-0.00423630178631385,7.4463595882257e-05,-0.000882576602863061,-0.00121339343623061,6.90814758383951e-05,-0.00489726481753028,-0.00491712256304933,-0.000336107571518696,-0.00309990663382198,-0.00268166263498149,7.07584267685135e-05,-0.00135984065000372,-0.000247374867447192,-0.000409714854522569,-0.000445330549124101,-0.00605323781282063,-0.00435582072580498,-0.00465272649290238,-0.000353237398210915,-0.00148495907094226,-0.000656127486180935,-0.00742464659646913,-8.95835100140907e-05,-0.0015476389873168,7.43151908677575e-05,-0.00187589082678308,-0.00209973614379821,-0.000646982987252187,0.000158324719683467,-2.04347655783366e-05,4.36281852627118e-05,-0.00222327451008919,-4.24958787039742e-05,7.17590345304941e-05,7.99553283679089e-05,-0.00361687384729592,-0.00285959644615996,-0.00752972461579571,-0.000410818639683619,-1.62380834884956e-05,-0.00505887658959825,0.000110241307093695,-0.00915080881767372,-0.00231017158303004,4.36281852627118e-05,-0.000575988498702884,-0.00185167960395294,0.000222902862544672,-0.00784809937898423,-0.00151617915539859,-0.0015117589694551,9.54992866475379e-06,0.000104518536335974,-0.0144057252957812,-3.17417057580371e-05,4.10466706206591e-05,-0.000522620355832615,-0.00551001557161257,-0.0029319757950983,-0.00104454764527606,3.8491373327787e-05,-2.95272750197029e-05,-0.00453419639114294,-0.00148282060335614,-0.00379463843282224,-0.00026894848854031,7.1759034529606e-05,-0.00095998624603677,-0.0015476389873168,-0.00650823801738953,0.000171651254870397,-2.27438431448235e-05,0.000219508393684897,0.000139742191099579,6.90814758383951e-05,-0.00156183655415187,-0.00304062971371089,-2.95272750197029e-05,-2.50287061156484e-05,-0.00205862603752394,-0.000540691300906282,-0.0042408436323953,-0.000499302251730782,-7.84483693205829e-06,0.000226389316724251,-0.00120832286019557,-0.00217391373120179,-0.000345400500420645,-0.00304062971371089,3.8491373327787e-05,-0.000495810647681338,-0.0041942985756469,-0.00152117225664306,-0.00012627640472207,-0.003424677974178,-0.00149081422602659,-0.000884118637825893,-8.97743506946824e-05,4.36281852627118e-05,2.35086642330629e-06,-0.0023865373132228,-7.84483693205829e-06,-0.000417090652316432,-0.000598151732773111,0.000277898899414986,-2.444788590239e-05,-0.00104454764527606,-0.000155137312417786,-2.95272750197029e-05,-0.00089350675452593,-2.27438431448235e-05,-6.2625459930743e-05,-0.00121228494925596,3.8491373327787e-05,-0.00127650452130279,-0.00261893733302188,-0.00405847568115547,-0.00162429292663901,7.83524990684015e-05,4.72589692090963e-06,-1.02538639330518e-05,-7.84483693205829e-06,-0.00121003661701735,-0.000437669408703378,-0.00271512131932905,3.59619049392634e-05,-0.000966405413713289,-0.00129538343631896,-0.00405847568115547,-2.27438431448235e-05,-8.07794002177786e-06,-0.000286572629157433,-0.00130567279238392,7.4463595882257e-05,-0.000499302251730782,-0.00136937363942113,-6.93156907694004e-05,-0.00197941108376742,-0.000724684271020237
"17:30846624:C:G",0.0003322871701954,-0.00111854210409668,-0.00168226138517147,-0.00274557725860447,0.000376636600111446,-0.005839545988227,-0.00443682839602833,-0.00656515056318696,0.000128343303274825,-0.00125278014337749,-0.00316687694333639,-0.00131529566530286,0.000370387183282528,0.000235103982561213,-0.000183109777110779,-0.00193922281090142,0.607652328964775,-0.00557933253412823,-0.000691656130662022,0.000152035870262246,-0.00437407552381108,-0.00218435781664006,-0.00658100802811834,-0.00834682776979534,-0.00123024289638174,-0.00266799632165515,-0.00320317019038541,-0.00535394329068328,-0.00614844241536705,-0.00267791870062339,-0.00487285035689489,-0.0071508731826162,-0.0089968888453047,-0.000955648436032241,-0.00481600269960136,-0.00295900611577116,-0.00346717835554822,-0.00134308466607003,-0.00479763946877743,-0.0130517956944969,-0.000749796324268637,-0.00184864533250639,-0.00998080846549909,-0.00354711526909579,-0.010953547044374,-0.0051876961713635,-0.00969416192490202,0.000175967805412292,-0.00717876485599334,-0.0169652166537975,-0.00211348648122645,-0.00306196849759521,-0.0020330883474946,-0.00128119749591082,-0.00230972735351109,-0.00483477610241501,-0.00534273900529358,-0.0036382430037416,-0.00187280643279486,2.77805721093927e-05,-0.000528252896847548,-0.0028943933029959,-0.0107779381205368,-0.00569036646388055,0.000955567449467676,-0.0025695898971172,-0.00120688722721685,-0.000465110296657301,-0.00747668391952372,-0.00675922502880066,-0.00901190089611248,-0.00317579337353102,-0.00160027647574257,-0.00200643623324304,-0.000994847886534256,-0.013931768681545,-0.00204091171268717,1.16704506050169e-05,-0.0019341862750708,-0.00138637341032855,-0.000447699656133338,-0.000417016727234376,-0.000134948702914528,0.000235103982561213,-0.00476714061862937,-0.00491695795771285,-0.00151010449710931,-0.00311847359042972,-0.00782074889411888,-0.00290750013775165,-0.000560491195450652,-0.00230924262579091,-0.000376767159573799,-0.00346527642839023,-0.00236639818306106,-0.00233205482030785,-0.00424857120598165,0.000172850124526391,-0.00359447846945526,-0.00102365895857837,-0.00500998732398372,-0.00163521318180093,-0.0031455511506131,-0.00882951518638952,-0.00493860227305731,-0.0038358410809618,0.000452714126909726,-0.00332642444998577,-0.00824507776865469,-0.00600138320270194,-0.00764236717339539,-0.00187437806240709,-0.00193999494193431,0.000172850124526391,-0.00205729505179786,-0.00489557029906695,-0.00291777636389057,-0.00924153747235934,-0.000496013036606513,-0.000134054068803291,-0.00955347646364801,-0.00205713134395591,-0.00398913666780532,-0.00400467502514834,-0.00193999494193431,-0.00424857120598165,-0.000495175543929527,-0.0096869458605271,-0.00193094367662905,-0.000690068930376597,-0.000549734987038697,-0.00468677656164385,-0.00211070638986133,-0.00311545042764472,-0.00503732255334022,-0.00410423717241226,-0.00302840245977132,-0.000134054068803291,-0.00270682042948645,-0.0041107022381528,-0.00772022003001371,-0.00329143370133211,-0.00233205482030785,-0.00557326550571835,0.000172850124526391,-0.0021469731331698,-0.00341106160957771,-0.00452994034173848,-0.00262628175929747,-0.00424857120598165,-0.00593290073597785,-0.00229354256726033,-0.0108774198711541,-0.00869341944339919,-0.000687212877898524,-0.00176566963864921,-0.00319057005703316,-0.000134054068803291,-0.00303355265007044,-0.000183455681462164,-0.00489940332095795,-0.00176464979177293,-0.00243944261148732,-0.0049459038531765,-0.0108774198711541,-0.00341106160957771,-0.0018138195569497,-0.00284642756189069,-0.00270682042948645,-0.00517069599639353,-0.000496013036606513,-0.00172739005048195,4.42157291962175e-05,-0.00354578831562069,-0.00294796165991462
"17:30846919:T:A",-0.00132560320034614,-0.000128614075944888,-0.000191720523726957,-0.000241715427208966,0.000140075925555649,7.19932840853588e-05,-0.000937603802247722,0.00018782848636878,-0.00625055246448625,-0.00426327294750095,-0.00702179672427228,-0.000523079122851655,-0.00125147548307503,0.000102910649427024,0.000120283737646609,0.000209432568657242,-0.00557933253412823,0.257153519373429,-0.00034487940565775,-0.000128614075944888,0.00029676490511843,-0.0113768129016423,-0.00287040970967656,9.28583034474073e-05,-0.000202518956069042,-0.0044376844694618,-3.48316950447014e-05,-3.48316950438132e-05,-0.000209696627676337,0.000144871869558472,-0.000342576694360552,-7.57500616819229e-05,-0.00207418105072765,-0.000202518956069042,-0.00106312869695335,0.00121357824744006,-1.38845783688168e-05,-0.000135192316892407,0.000192357042704039,0.000208497804022212,-0.000122117187721926,-0.000101209294072646,-0.00723301489136041,-0.0021562125767165,-0.00362200368173848,-0.00238919974925089,-0.000355831327506273,-0.000496344255941139,-0.00273389388927558,-0.00434948810214308,-0.00198636849135392,-0.00120349112110141,-2.29320917579656e-05,-0.00466766979686373,0.000509773909969091,-0.000459697674421555,6.00836899087298e-05,-0.0014239103292093,-0.00325254915131845,-0.00048229629288965,-0.000303560449809837,-0.00108792715272266,-0.000394967210948671,-0.00427053655143705,-0.00305209211766044,2.42571865065599e-05,-8.19953153348152e-05,-9.47234194272895e-05,-0.00271418562942927,-0.00266053966196456,-0.000148599028741536,-0.000189005473886006,-0.00532701470107622,-0.00104809024744812,-0.00225634818380005,-0.000611622814566282,-0.000196877954689256,-0.000202518956069042,-0.000501623748178748,-0.000665180507763097,-8.19953153348152e-05,-0.0028865404559868,-0.00113238159697993,0.000102910649427024,0.000528577902675131,-0.00108752493546849,0.000196829913466701,-2.29320917579656e-05,-0.00131546660709159,-0.000402234239353039,5.14801700397527e-05,-7.57500616819229e-05,-0.00301005316898717,-0.00150432685199053,-0.000472093803852047,-0.005422125105917,-6.95820528600066e-05,4.61686464374722e-05,-0.00121968118070814,-0.00744388046596356,-0.00063287930212752,-0.000426167761479412,-0.000128614075944888,-0.00328144504737793,-0.0013269106328675,-0.00517963128759158,0.000205612651066112,2.98373359557402e-05,-0.000424324022085365,-0.000256480703553663,-0.000122117187721926,-0.00480822469148379,-0.00142614382219897,4.61686464374722e-05,3.53484539346027e-05,-0.000592754218284419,-0.00230385315316628,-0.00172911112057506,-0.000885540029278431,-0.00472413305971653,-0.000442443383463775,4.61686464374722e-05,-0.00647174939131112,-0.00144169994511945,-0.00142614382219897,-6.95820528600066e-05,-0.00115035330490887,-0.00177116725696136,2.98373359557402e-05,3.86458263106348e-05,-0.00112908938189626,-6.34898681193263e-05,-0.00481151953829251,0.000135220274573022,-0.000827298978106406,-5.62793715630505e-06,-0.00374417220172063,-0.00472413305971653,-0.00226221590524833,-0.000155430683446589,-0.000547303827276302,-0.00016578649535326,-0.005422125105917,-0.00170684174782298,4.61686464374722e-05,-0.00497085895089633,2.98373359557402e-05,-1.70926860239007e-05,-0.00223987143232485,-6.95820528600066e-05,-0.000440005585537584,-0.00355117749154132,-0.00176773066505387,5.0049077383818e-05,-0.0026266703068254,-1.13250721218705e-05,-0.000253214866262397,-0.00472413305971653,-0.00224671140822785,-0.0010471624713988,-0.000490555665972003,-6.34898681193263e-05,-0.00512125042192046,-0.00170279227942771,-0.00176773066505387,2.98373359557402e-05,-0.000270380878165888,-0.0002490515739213,-0.00226221590524833,-0.000523079122851655,-0.000885540029278431,-0.00451785810634142,-0.00431402497972844,-0.0063330273531097,-0.00305026377142692
"17:30846985:C:T",-0.00183556718285693,-0.000806882185695024,-0.00352606831212565,-0.000206903471502429,-0.00406248657416075,-0.00228344414883441,-0.00137667607113023,0.00015582146436266,-0.00174708824522796,3.88062390586086e-05,-3.14309130438062e-05,-0.000114327629351152,-0.00253132560903335,8.56983831933888e-05,-0.00213622759610299,2.97022872670638e-05,-0.000691656130662022,-0.00034487940565775,0.249874518250742,-0.000108810111118629,-0.00320373090523818,-0.00309492393107824,-0.000332683927445565,-0.00227477003694254,-0.000172369200465816,-0.00278701692079508,-8.11116450920579e-05,-2.84630526143914e-05,-0.000178484269685697,0.000120488361001314,-0.000295254585041427,-6.35342332095945e-05,-0.00168600280494591,-0.000172369200465816,-0.00230922979726866,-0.00138756952458152,-0.00418330173845671,-0.000114327629351152,-0.0030635505938168,-0.000749640349603453,-0.000103368415555138,5.42005011947566e-05,-0.00620824094312766,-0.00051273863833412,-0.00192868012243164,-0.00369939713025325,-0.006175222966597,-9.95995099666303e-05,-0.000590291338752102,-0.0059635142367398,-0.000857289605818767,9.30588267049615e-05,-1.87137461855613e-05,-0.00221646132722775,-2.57368043170558e-05,-0.00173297008602891,-0.00143482847533427,-0.00676136705471908,-0.00100483151501951,-0.00180219305546014,-0.00285356841847317,2.5641861857828e-05,-0.00556821165100541,-0.00188291504090277,-0.0140982340122142,2.11321592527014e-05,-0.00682366565901393,-0.00309965370307363,-0.000553050010439371,-0.000806882185695024,-0.000125596451675314,-0.00303675018141814,-0.00404165103081322,-0.000927526883840013,-0.00200201674181422,-0.000322653445518739,-0.00674671073150712,-0.000172369200465816,-0.00103448079100987,-0.0011090253552819,-0.000136300755815277,-0.00515358374802144,-8.74368980046114e-05,8.56983831933888e-05,-0.00353258233285203,-0.000937605209598402,-0.00385920517114613,-1.87137461855613e-05,-0.000611179987311417,-0.0121212722351736,4.30768051122854e-05,-6.35342332095945e-05,-0.0049510130174637,0.000254766851033317,-0.00301717665434076,-0.00529993546570307,-0.00389245881374567,3.88062390586086e-05,-0.00197157425724281,-0.00167349813825979,0.000353047596742151,-3.98433114243701e-05,0.000414946349965639,-0.00134743472995957,2.11321592527014e-05,-0.00231472970841562,0.000169538622072807,2.56418618587162e-05,-0.00189312244427597,-0.0002195923424404,-0.000103368415555138,0.00051492254664609,-0.000679629464115372,3.88062390586086e-05,-0.00241186908246593,-0.0021548597255503,-0.000338951627766093,-0.00199651301221504,-7.92836550420617e-05,-0.00012828698803613,-0.00223374324070758,3.88062390586086e-05,-0.00798430691497831,-1.83282904648863e-05,-0.000679629464115372,-0.00389245881374567,-0.000157051725126145,-0.00205848415360999,2.56418618587162e-05,-0.00244933940509195,-7.83444969565394e-05,-5.33921949106286e-05,0.000477450689522207,-0.000224211682336772,0.000128452819109448,-4.58359478816561e-06,-0.00167755951102588,-0.00012828698803613,-0.000268046284010559,-0.000131351023679116,-0.00155171116012909,-0.000193975190332374,-0.0031852926886522,-0.00181892402501838,3.88062390586086e-05,0.000438361664491183,-0.00111651250762979,-1.39391874132144e-05,-0.000235079077699929,-0.00389245881374567,-0.00205861467186352,-0.00147673935110149,0.000280705328479236,-3.34162750075251e-05,-0.000326871519745531,-9.22956943139042e-06,-0.000150672142376074,-0.00012828698803613,-0.00113245579157173,-1.16217587597944e-05,-0.000221400769096824,-5.33921949106286e-05,0.000436816349897562,6.95229004437081e-05,0.000280705328479236,-0.00111651250762979,-0.000147372000933288,-0.000995850025501177,-0.000268046284010559,0.000360875871249888,-7.92836550420617e-05,0.000553783890138604,-0.000158489958791641,-0.00742988641316522,-0.00038715928926969
"17:30847666:C:G",7.29996765729268e-05,-4.14518786948648e-05,-5.16784002293491e-05,-7.85833366068189e-05,4.69005421033231e-05,2.52474957518345e-05,-0.000580683601425491,6.28558606665663e-05,-0.00185690056598276,1.54741757896204e-05,-0.00412978689636834,-4.33595575852763e-05,0.000249087846878382,3.39322234479411e-05,4.14025560706577e-05,7.1759034529606e-05,0.000152035870262246,-0.000128614075944888,-0.000108810111118629,0.198400592524907,-0.00338460324570455,-0.000396982658952716,0.000117057737465842,3.11071634655491e-05,-6.50667375765579e-05,8.76893496846165e-05,-9.96024893495928e-06,-9.9602489340711e-06,-6.71598430441733e-05,-0.00680010920555585,-0.0005198949873364,-2.39908817487589e-05,-0.00114417942037104,-6.50667375765579e-05,0.000158399395668418,-0.00423178861730378,-0.00138385337866609,-4.33595575852763e-05,6.40990286200349e-05,-0.000949515322277605,-3.95673837489952e-05,-3.13212920088901e-05,-0.00312964481479927,-0.00310261805189072,-0.00374719171931837,-0.00152058344894535,-0.0013039049344945,2.6739408958143e-05,-0.00399111166064614,-9.65828350256714e-05,-0.0129712354926141,3.85497474999497e-05,-6.55901922375079e-06,4.95359934538087e-05,0.000167734956034948,-0.00150449749036774,0.000346424845786508,-0.00573838633113777,-0.00330227277865092,9.26087733343905e-06,-9.44890700260714e-05,1.08426654863436e-05,-0.00560444213603795,-0.0035649105811153,-0.00405758645074528,9.26087733343905e-06,-2.57896781237221e-05,-2.94544635988103e-05,0.000287151570263156,-4.14518786948648e-05,-4.72461941249946e-05,-0.000103110370249127,-0.00556481991155433,-0.000505389004265666,8.74750133190716e-05,-0.000543297798871301,-0.0110240483025086,-6.50667375765579e-05,-0.000615087690670535,-2.94544635979221e-05,-2.57896781237221e-05,-1.89791779616755e-05,-6.55901922375079e-06,3.39322234479411e-05,-0.0053822780739825,-5.90114198839586e-06,6.53272134591987e-05,-6.55901922375079e-06,-6.09577816090834e-05,-0.00105208020259795,1.69811899768391e-05,-2.39908817487589e-05,-3.84251794018908e-05,0.000288479024598054,-0.000152400288984111,0.000163383786700777,-0.000718614765675696,1.54741757896204e-05,-0.00287760663801429,7.53075076431742e-06,0.00014417811073475,5.09453309049945e-05,-4.14518786948648e-05,-0.00258565593378801,9.26087733343905e-06,-0.00271456549504823,6.77397026747073e-05,-0.00167436694423895,-0.000136395730070404,-8.29150479182417e-05,-0.00294637789573926,0.000215957497844421,2.52474957518345e-05,1.54741757896204e-05,1.24052480936498e-05,-2.76107339098886e-05,-0.00570154863429018,-0.00471016605115171,-2.94544635988103e-05,-5.90114198839586e-06,-0.000141754605809119,1.54741757896204e-05,-0.00404925246880961,7.29996765720387e-05,2.52474957518345e-05,-0.000718614765675696,1.42644473912767e-05,-0.00471593205579435,1.08426654872318e-05,1.58938660526076e-05,1.05110066783709e-06,-2.04584590468571e-05,0.000199116249876674,4.55512091175336e-05,-2.57896781246103e-05,-1.61023537437188e-06,-0.0044835208204459,-5.90114198839586e-06,-0.00581132487848457,-4.92260421083301e-05,-0.000176842391910625,-0.000517009365617049,0.000163383786700777,7.66291690750265e-05,1.54741757896204e-05,0.000181912891441982,1.08426654872318e-05,-4.88938735365707e-06,-0.00586828590428112,-0.000718614765675696,-0.000128236498060375,-0.00463511611547052,-0.00479842044613221,-0.00325204178336413,-1.51170648736709e-05,-3.23991338024854e-06,-0.00365766657358524,-5.90114198839586e-06,-0.00586572513860606,1.42644473903886e-05,-6.50667375765579e-05,-0.00411640476449371,0.000181383455803541,2.8213105354169e-05,-0.00479842044613221,1.08426654872318e-05,-0.000500473450331995,-8.07357835537204e-05,-0.00581132487848457,-4.33595575852763e-05,-2.94544635988103e-05,0.000233384247382951,-2.63683440788753e-05,-0.00422668768419765,-0.00420088368671223
"17:30848513:G:A",-0.00414929324973379,-0.00638353353218868,-0.000864097155230059,-0.00179660732247822,-0.00130450986450903,-0.00477474090762442,-0.00436516069799664,-0.000934137750076225,-0.00132761102321899,-0.00144527824128549,-0.00810431455021288,-0.000210228436103854,9.65731755204757e-05,-0.000551544559161066,-0.00158767992111564,-0.00315800264024846,-0.00437407552381108,0.00029676490511843,-0.00320373090523818,-0.00338460324570455,0.646585359712707,-0.00377348085160589,-0.000380175195326959,-0.00348704729990246,-0.0005646001931634,-0.00213635544600477,-0.00233102339611779,-0.00271767171362924,-0.00413128322127498,-0.00338967527076139,0.000157212873136636,-0.000496532312563858,-0.00576627348632819,-0.00264527279444859,-0.00713410972223461,0.000396405248068721,-0.005732603034728,-0.00295615006117256,-0.000205836486509625,-0.00689931841149605,-0.000991823982112727,-0.00201123649097745,-0.00491865332622909,-0.00365804320709273,-0.000776314337889605,-0.0098385214790695,-0.00506136866833318,-0.00284107787086452,-0.00335658547396589,-0.0016108358772251,-0.00433728228412766,-0.00578450997496471,-0.000506623719491728,-0.000665535551293672,-0.00309952367945066,-0.00922460372131262,-0.00971162522522429,-0.0033028700177673,-0.00681354526340927,-0.00251107834307174,-0.00507584838100295,-0.00840692891657202,-0.00489840477611736,-0.00301412379611721,0.000142570590618618,-0.00439910600402893,-0.00500764406799448,-0.00464698834705146,-0.00806591459992756,-0.00356006021864363,-0.00163683619068067,-0.00528974398795778,-0.00352394469156314,-0.0024154355225483,-0.00310482009924451,-0.00389739935830891,-0.00630553084854268,-0.00259143472851697,-0.00287267594092899,-6.10225064701098e-06,-0.00113058912788233,-0.00471865447318409,-0.00536705427299999,-0.00019835057813733,-0.00882044296396334,-0.00786371527778673,-0.0034588390546384,-0.00487358487054212,-0.00493257001916358,-0.0088632670770723,-0.000270152685693859,0.000125520984611605,-0.00440796426165591,-0.00717392745745604,-0.00598629342038404,-0.00107707912097199,-0.00500300225372197,-0.0047544651847522,-0.00520029908589903,-0.00175191649949014,-0.00551767907672263,-0.00088820065306372,-0.00523008633383615,-0.00475632148864102,2.24126592920371e-05,-0.00442164026056302,0.000323025987903236,-0.00318047805765076,-0.000324531043390586,-0.000575545221445317,-0.0019434818591213,-0.00733231876172136,-0.00157123160221406,-0.0047544651847522,-0.00212058971704021,-5.38010147437262e-05,-0.00735277497547004,-0.00871797709032007,-0.0100397084805017,-0.00168952736247352,-0.000377646026500145,-0.00121129513607965,-0.00457228693257861,-0.000802703686000328,-0.00157123160221406,-0.00500300225372197,-0.0117547103642632,-0.00809846826830718,-0.000127063463779997,-0.000870536623879481,-0.00032943429801513,-0.00037005606113194,-0.007446144147365,-0.0083780230055055,-0.00532582958646799,-0.00336094899738804,-0.00180306940031194,-0.00168952736247352,-0.00776102052154082,-0.000302821097463379,-5.66538352924084e-05,-0.00125552812785612,-0.0021866258287413,1.49791966652657e-05,-0.0047544651847522,-0.00875096883350235,-0.00282602758256711,-0.00438708550470679,-0.00863642192811431,-0.00500300225372197,-0.0146102084870652,-0.00194992977932396,-0.00497541572460181,-0.000937013285161825,-0.00551036920604764,-0.00190473265035429,-0.00233968659491657,-0.00168952736247352,-0.00841558110445195,-0.0104574520852472,-0.000923094726395846,-0.00165124236435332,-0.00588941905637652,-0.00028046380620772,-0.00497541572460181,-0.00282602758256711,-0.00139184745049103,-0.00674385730601568,-0.00892684138835653,-0.00401500724587756,-0.0100397084805017,-0.00885742188481675,-0.00179196471910448,-0.00459677376193168,-0.000719540129617169
"17:30849410:A:T",0.000883734325326735,0.000355633255152199,-0.00472228027138133,-0.00191951251736278,-0.00206941706854025,-0.000828878383763332,-0.00544283853163563,-0.000955289970629103,-0.0067864753059661,-0.00112066015241119,-0.0131135554882835,-0.00404529109262786,-0.00835846137567842,-0.000213734545571498,-0.00293656229093031,0.00025653924512703,-0.00218435781664006,-0.0113768129016423,-0.00309492393107824,-0.000396982658952716,-0.00377348085160589,0.530849022474608,-0.000240140233108477,-0.000206349842809317,-0.000541106033380423,-0.00152466727600808,-0.00515594707283551,-0.00555390953862034,-0.00211628969029753,-0.0014749419453004,0.000172380629241076,-0.00217282256084328,-0.0134823096467938,-0.0023404320551208,-0.00408887074311526,-0.0140307797732824,-0.00711835508377545,0.000228003744846106,-0.0017972650111151,-0.00773063476947211,0.000215903108396809,-0.0020174317382633,-0.00302931212727309,-0.00185221165538962,-0.00408991418439886,-0.00306814068837591,-0.00117460411521719,-0.00617331487301342,-0.00401883709052431,-0.00188471563194526,-0.00766773817172073,-0.00621224412864141,-0.00396728229710419,-0.0021208972343576,-0.000547478784901578,-0.00701622809804903,-0.00645421606529206,-0.001982830300161,-0.00515696998746229,-0.00500837774844864,-0.000183194496528927,-0.00405186375224176,-0.00639819206368841,-0.00157759800961754,-0.0107846347825817,-0.000201163694014461,-0.00158749482195386,-0.000479691134649407,-0.00645369721165068,-0.00304317699693613,0.000240375007398264,-0.000375868799879164,-0.00764818656512389,-0.0087848331829834,-0.00694337188538885,-7.65272128466776e-05,-0.00639856715264919,-0.000335820585847912,-0.00853493946180706,-0.000320153851166793,-0.00314043680573128,-0.00773169163918652,-0.000389520616453254,0.000234914498847161,-0.00108761049997463,-0.0100262618095446,-0.00227539940881627,-0.00266551053642683,-0.00255874475476325,-0.00146905371781614,-0.000104893729050204,-0.00214008510754571,-0.00797126531121695,-0.00109463637258278,0.00018702851033936,-0.00599992302182351,-0.000721459499389177,-0.00112066015241119,-0.0038187802920846,-0.00740333959858219,-0.00170551541932573,-0.000354809204997864,0.000221920148128163,-0.00419804118357714,-0.00523417260287129,-0.00530533364771024,0.000468070266393283,-0.000221945070525642,-0.00971638064860691,0.000429267795713173,-0.00136512472236738,-0.00663110793808475,-0.00144477358796813,-0.00112066015241119,-0.00592309512774758,1.60954301042793e-05,-0.00462407335421489,-0.00303922634602038,-0.000887464935837023,-0.00144079331571323,-0.00443898796537212,-0.00112066015241119,-0.000979290442978176,-7.96280050199272e-05,-0.00144477358796813,-0.000721459499389177,-0.00217502555006455,-0.00315469827469084,-0.000396385782632791,-0.00274015671338912,-0.000790760208570163,-0.00143544964719489,-0.00651858369905067,4.14687352252585e-05,0.000128433239970249,4.8499146139136e-06,-0.00210374750790976,-0.00144079331571323,-0.00474705237936179,-0.00259009285398726,-0.00824499285637081,-0.00033019991816019,-0.00742583553498743,-0.000133267765630052,-0.00112066015241119,-0.00652730563248838,-0.00292143003523471,-0.000587218357986252,-0.00466898366511748,-0.000721459499389177,-0.00231299582008893,-0.00219370467606161,-0.00278668971850093,-0.000320976303551213,-0.000116380219552958,9.75430559080337e-06,-3.73742101222874e-05,-0.00144079331571323,-0.00470946229325664,-0.00188054376305313,-1.79995998621507e-05,-0.0043754506277569,-0.00680362015958647,-0.00437721127630653,-0.00278668971850093,-0.00292143003523471,-3.42742140055918e-05,-0.00333207258839252,-0.00474705237936179,0.000228003744846106,-0.000887464935837023,-0.00634439656016461,-0.00114445518132822,-0.00163719418539809,-0.00493642045069986
"17:30849633:T:A",-5.13796148453594e-05,-0.00155923358926469,-0.00661329018818613,0.000218657422855095,-0.000154354212598129,-0.00304070348732122,-0.0038694042304126,-0.00106973415776945,-0.00490621307735406,-0.00120074777824541,-0.000140030930785962,0.000121119934677338,-0.00338792442156333,-0.000106921318558939,-0.0013594995305386,-0.000122759786242099,-0.00658100802811834,-0.00287040970967656,-0.000332683927445565,0.000117057737465842,-0.000380175195326959,-0.000240140233108477,0.3877733831731,-0.000100923295573097,-0.00420656935358288,-0.000627070487105197,2.14048010471757e-05,-0.00174070393823822,-0.00239914879980141,-0.000157126421101772,-0.000179661358629346,-0.00232365904237586,-2.3477415623141e-05,0.000179249478918564,-0.00393747587367654,-0.00396419662604952,-0.000258556860469383,0.000121119934677338,-0.00100397629314752,-0.0111592991553477,0.000113037079378486,-0.00186955650519405,-0.00163809372574786,-0.00633297869237293,-0.00115421271520599,-0.00589577490650806,-0.00856150215002494,-0.000250649058170183,-0.00157420995819368,-0.0041977326826359,-0.00360898832986312,-0.000232943387161733,1.41176614336658e-05,-0.00258243498360855,-0.000461154700908573,-0.00370511463472578,-0.00315613364267886,-0.00833003413973099,-0.0021142739270239,-0.000128668484351557,-0.00366000567798874,-0.00186487095858734,-0.00590206116495562,-0.000912552595147886,-0.00159120904924981,-0.00616388223782671,-0.00567414767545582,-0.00431349780505563,-0.00625040833656954,0.000117057737465842,-0.000558546859043219,0.000279355058976805,-0.00189107642471065,-0.00172323403346386,-0.00818022645201921,-0.000113788044098229,-0.00382795075011888,-0.00183255936474858,-0.00119315680542886,-0.00225430330347809,-0.00248050736746475,-0.0112882688914242,1.41176614336658e-05,-0.000106921318558939,-0.00185079347775741,-0.00158580001409181,-0.0014985981630069,-0.00574936325193143,0.000170606605488288,-0.00617499655974374,0.000253901521928945,-0.00575994085426146,-0.0107827062861441,-0.000170920866451318,-0.00105591482353162,-0.00290860938821691,6.25100876971985e-05,-0.00580864448789598,-0.00382527635217134,-0.00142953733541162,-0.00153034680601571,-0.00137874033551721,0.000117057737465842,-0.00097178029864331,-0.000126423108850915,-0.00375981437217998,-0.000219736284810423,-0.0015101523884482,-0.00200020391228595,-0.000879922928143095,0.000113037079378486,-0.000572003113878949,-0.00022016685229076,-0.00580864448789598,-4.29213424411046e-05,-0.00200414516108705,-0.00136588114768355,-0.00259460755605367,-0.00192582117914153,-0.00853104859263176,-0.00127390245734205,-4.94994074529131e-05,-0.00542212359814798,-0.0013774023517561,-0.00022016685229076,6.25100876971985e-05,-0.000133225870524889,-0.00257718002472718,-0.000101150298940311,-0.00563678176123528,-0.00333757882024699,-0.000450982273020983,-0.000546287204580054,-0.00242373919071159,7.01732036212377e-05,3.4738129475187e-06,-0.00303963180667743,-0.00853104859263176,-0.00150522396055042,-0.00209408805242628,-0.00312962902849545,-0.000242300251871441,-0.00290860938821691,-0.0012472789958915,-0.00580864448789598,-0.000441270636115654,-3.95787899281075e-05,-0.00145470757618948,-0.00158533711286868,6.25100876971985e-05,-0.00247819892004042,-0.00368926950114989,-0.00282258912392441,-0.000226287648326107,-0.00129772300332753,6.98430888057544e-06,-0.000328030043431404,-0.00853104859263176,-0.00157914238100076,-0.000225040196267123,0.000179249478918564,5.87381240064744e-05,-0.000380990313367136,-0.0028229420291046,-0.00282258912392441,-3.95787899281075e-05,-0.000334242847031874,-0.00119628675853711,-0.00150522396055042,0.000121119934677338,-0.00192582117914153,-0.000769099168982379,-0.00907885370127737,-0.00476732350248366,-0.00628434837047109
"17:30849897:C:T",-6.09428612179386e-05,3.11071634655491e-05,3.21500814921549e-05,5.83692518913992e-05,-3.80097943519786e-05,-2.10102682656199e-05,4.57948857448542e-05,-5.13429855102387e-05,-0.0032000313713958,-1.23496354866859e-05,-0.00975992145584925,3.23716817822728e-05,-0.00118945270866622,-2.69545694315809e-05,-3.42417091570013e-05,-6.0097443586038e-05,-0.00834682776979534,9.28583034474073e-05,-0.00227477003694254,3.11071634655491e-05,-0.00348704729990246,-0.000206349842809317,-0.000100923295573097,0.161623026085862,4.81575908457543e-05,-0.00374917677646636,6.73282541807652e-06,-0.00187838171768551,4.95237984621255e-05,-3.89262148567937e-05,8.00126738047524e-05,1.78733884705906e-05,3.8564104092309e-05,4.81575908457543e-05,-5.78243877553675e-05,5.80372494605186e-05,-0.000163648576819497,3.23716817822728e-05,-0.00489565210970078,-0.0037261225292573,2.98559069520365e-05,2.27651824484809e-05,-0.00162783413938872,-0.000129496204438695,4.61039466337354e-06,-0.000908071080717221,-0.00116412395114285,-2.20281329070815e-05,4.92348766130135e-05,6.99543111393197e-05,-0.0028804755454388,-3.22938013397334e-05,-0.000301972760939684,-4.22433657067955e-05,-0.000144167163209197,-1.68241208973186e-05,-0.00312450079659143,-0.00277196960496529,-0.00454863405072725,-8.12016132467619e-06,6.71325581071969e-05,-9.1946784781527e-06,-0.00168526349078846,-0.000148191606210268,-0.000325199582990265,-8.12016132467619e-06,1.9076730827905e-05,2.15224172128714e-05,-0.000266758964987623,3.11071634655491e-05,3.49413505285057e-05,7.54748854401299e-05,3.07084539379332e-05,-0.00547890072552093,-7.37938554715711e-05,2.5648958231983e-05,-0.00929313602724147,4.81575908457543e-05,-0.00538609081307495,2.15224172128714e-05,1.9076730827905e-05,1.08111532144406e-05,4.44042057967664e-06,-2.69545694315809e-05,-0.000165809437638664,2.10300524194906e-06,-5.30432693990335e-05,4.44042057967664e-06,4.54682296986419e-05,-0.0055352598652787,-1.33790257139665e-05,1.78733884705906e-05,2.56489582337593e-05,-0.00136429192986753,0.000108831889328087,-0.000139981954089485,-0.00292427508504289,-0.00128703425422039,-0.00428381161462443,-9.025852811817e-06,-0.00136314652908798,-4.32010628337309e-05,3.11071634655491e-05,-6.97092374419839e-05,-8.12016132467619e-06,-0.000466609242957716,-5.47066925626893e-05,-9.1946784781527e-06,9.77127908532438e-05,6.11741109208808e-05,2.98559069520365e-05,-0.000189433637595826,-2.10102682656199e-05,-0.00128703425422039,-1.02576407519095e-05,2.0293004285854e-05,-0.00298387427026103,-0.00123810096223931,2.15224172128714e-05,-0.00150278208179788,0.000101036688681333,-1.23496354866859e-05,-0.00400035304612256,-6.09428612179386e-05,-2.10102682656199e-05,-0.00292427508504289,-1.35585863594301e-05,-0.00125369340096881,-9.1946784781527e-06,-1.4659499099956e-05,-2.56750225524627e-06,1.55046852512442e-05,-0.000173029394225033,-3.70833018950023e-05,1.90767308270168e-05,1.09253053892644e-06,-0.00248094716863623,-0.00150278208179788,-0.00302780464576546,3.62469355543737e-05,0.000124889544365736,1.99307577464225e-06,-0.000139981954089485,-6.34215093517909e-05,-0.00128703425422039,-0.000156772606255018,-9.1946784781527e-06,3.3125542175938e-06,-0.00305176091730175,-0.00292427508504289,-0.00187102621026547,-0.00236264776430595,-0.00130668584681004,-0.00312860351145527,8.25000532245213e-06,-0.0040445174779089,-1.4969052653413e-05,-0.00150278208179788,-0.00304949140551969,-1.35585863603183e-05,4.81575908457543e-05,-0.00348569603781268,-0.000156478381838632,-2.30349024521459e-05,-0.00130668584681004,-9.1946784781527e-06,-1.61520330150822e-05,5.97643407669324e-05,-0.00302780464576546,3.23716817822728e-05,2.15224172128714e-05,-0.000206290694515054,-0.0015989783203656,-0.00201366357823662,-0.00271909614800059
"17:30850035:A:G",-0.00391530204123036,-0.000573261055643925,-0.00144339596119458,-0.000666062752032737,7.25658671054674e-05,3.86312174853742e-05,-0.00010138217309752,-0.00477210485668511,-0.000237870913842642,2.3969296065296e-05,-0.00254668025968741,-6.81606334760332e-05,-0.00439118170953989,5.27470166131749e-05,6.36135732943188e-05,-0.0016585479660387,-0.00123024289638174,-0.000202518956069042,-0.000172369200465816,-6.50667375765579e-05,-0.0005646001931634,-0.000541106033380423,-0.00420656935358288,4.81575908457543e-05,0.195848509970559,-0.00115508750398163,-1.61612272382428e-05,-1.61612272364664e-05,-0.000761123894509552,7.47351303793664e-05,-0.000173664444645283,-3.78126299640513e-05,-0.000102045400696582,-0.000102335452150548,-0.00289691658651581,-0.00111043738915306,0.000271582631910405,-6.81606334760332e-05,9.92219446205311e-05,-0.000482141993974672,-6.20112664693195e-05,-0.00358305187942687,-0.000106002866826493,-0.00170274687476901,-0.00481609413168815,-0.00323979622023796,-0.0121562737352434,4.10576083975656e-05,-0.00344651410834551,-0.000152479176947828,-0.000731466741456188,-0.00293284145069173,-1.06396704335765e-05,7.54468058552504e-05,0.000259165808615514,2.86115940202336e-05,9.73445574343756e-05,-0.00155236806381609,-0.00225327109696316,1.38805086100646e-05,-0.00118306530813062,1.64498931063406e-05,-0.00370744059481876,-0.000317233707635367,-0.00849904951336278,1.38805086100646e-05,-4.07309218326546e-05,-4.66789249706778e-05,-2.33580437134506e-05,-6.50667375756697e-05,-7.44666210970024e-05,-0.000162072879784425,-0.00197216049280424,-0.00407701433380936,-0.000283463719831012,-6.24847810319906e-05,-9.13860885978224e-05,-0.000672122293061683,-0.00391513474391303,-4.66789249697896e-05,-4.07309218326546e-05,-0.000304890010546011,-1.06396704335765e-05,5.27470166131749e-05,-0.000116529304878377,-0.0013517330096251,-0.00129908287987224,-1.06396704335765e-05,-9.56700129810528e-05,-0.00252048693735674,2.64147541377824e-05,-3.78126299640513e-05,-0.000325908252944984,-0.00129094598941837,-0.000240219225916327,-0.0020074090381268,-3.49305601137218e-05,-0.00456556297129218,-0.00257051626161164,-0.00300760264676914,-0.000872327589679145,7.77505394395916e-05,-6.50667375765579e-05,-0.0032568853470778,1.38805086100646e-05,-0.00369712298232816,0.000105155212001939,-0.00173107402495454,-0.000703602749276833,-0.000130283160465261,-6.20112664693195e-05,-0.00170725972865782,3.86312174853742e-05,-0.00456556297129218,1.89874306864013e-05,-4.36861197403715e-05,-0.00266368310948817,-0.00209076082527382,-0.00111899595244935,-0.00159591624025435,0.000327387207208041,2.3969296065296e-05,-0.00119601943485659,0.000112272171748806,3.86312174853742e-05,-3.49305601137218e-05,-0.00144480129072555,-0.00201254163820508,-0.00173107402495454,-0.00302550511032429,-0.00140569179981398,-0.000743087176194202,-0.00170769802448945,7.03695922839032e-05,-4.07309218344309e-05,-2.61102580534356e-06,-0.000646447900901848,-0.00159591624025435,-0.00274385565658886,-7.76802198920734e-05,0.00040890994282794,-1.72503266702151e-05,-0.0020074090381268,0.000118210501285354,-0.00456556297129218,-0.00178504448211481,1.64498931063406e-05,-0.00147983196303958,-0.00278609495362137,-3.49305601137218e-05,-0.0049375899456745,-0.000749935065778473,-0.00193068907654581,2.86115940202336e-05,-2.58012291176613e-05,-5.25424589614687e-06,1.69842622632643e-05,-0.00159591624025435,-0.00278503904899097,-0.00134161045721548,-0.000102335452150548,-3.20840449958837e-05,-0.00185963146036627,4.34537633378085e-05,-0.00193068907654581,1.64498931063406e-05,1.98876167729622e-05,-0.000126747768451452,-0.00274385565658886,-6.81606334760332e-05,-0.00111899595244935,-0.00156477778452402,-0.00148905362418716,-0.00234115884498021,-0.000481497435905531
"17:30850132:C:T",-0.00711432083064079,-0.00501440740194692,0.000132165825348807,-0.00169997051327186,-0.0005731959500892,-0.00483590199472061,-0.00022610610916951,-0.0065289968483393,-0.00239103779532845,-0.001855143893148,-0.00776089276932579,-0.00358230323734254,-0.00302233503592708,-0.000190385518446412,-0.000250474482712093,-0.00330988448900804,-0.00266799632165515,-0.0044376844694618,-0.00278701692079508,8.76893496846165e-05,-0.00213635544600477,-0.00152466727600808,-0.000627070487105197,-0.00374917677646636,-0.00115508750398163,0.641927343432581,-0.00423787344843252,-7.21712853861689e-05,-0.00600329674742639,-0.000145963265835825,-0.00493306215557876,-0.0022978494079684,-0.00680292635747604,-0.000172413745281652,-0.00204637556373388,-0.00705879346219085,-0.0113196277649172,-0.00355802747340039,-0.00482771518036706,-0.00291521832382502,-0.006705311875848,-0.00345234248939619,-0.00208412583805551,-0.0043965830869328,-0.00420546312591075,-0.000716758309472709,-0.00897522405759998,-0.00595208301665551,-0.00262765115019103,-0.00494184165223066,-0.00424995770589609,-0.00588451149563429,-0.00706254072149903,-0.00438025370751571,-0.000784648912941499,-0.00381284030963869,-0.00793840749804575,-0.0120414709064325,-0.0028027972349931,-0.00676881879024727,-0.00307313069180015,-0.00446761199364598,-0.00933935944482656,-0.00833205265605486,-0.00351700958572909,-0.00417572741935679,-0.00469483426102091,-0.00172363214217786,-0.00224649738282601,-0.00161812377612947,-0.000177376538384344,-0.0044028471618569,-0.00550605405730265,-0.00198848511523719,-0.00751883139596954,-0.0051390425205855,-0.00358542802975093,-0.0022193998428186,-0.00241090571633329,-0.00775016374975834,-0.000298927150748973,-0.00362725895729454,-0.00129902897382994,-0.00045790063983997,-0.0196907775488033,-0.000430980654171798,-0.00834582505515158,-0.00285508690801173,-0.000839696799967093,-0.00448404291756255,-9.66526739167861e-05,-0.00587440436733733,-0.00363245845449844,-0.00949033326953952,-0.00442037028695097,-0.00769705883128369,-0.000271126885499129,-0.00544383504771329,-0.00254033153548727,-0.010317197299714,-0.004348516588212,-0.00257864844200784,-0.00551594390910548,-0.0039205718022961,-0.00500453819591584,-0.00223401083374286,-9.23207898155809e-05,-0.000500082647381106,-0.00262050743862963,-0.00038262379730547,-0.000459522514097088,-0.00626637663260921,-0.0020947596825831,-0.00544383504771329,2.2457195704817e-05,-0.00191886513337458,-0.0030609024775865,-0.00586094275553117,-0.00139494923385985,-0.00567658689674699,-0.00404095535453797,-9.23655823177327e-05,-0.000606172778735203,-0.00348465474105097,-0.0020947596825831,-0.000271126885499129,-0.00497670655182958,-0.00507241683326409,-0.0021949631370326,-0.00434598180060064,-0.0025969241714825,8.56573358181123e-05,-0.00488456768804646,-0.00131702330198014,-0.00235551710755555,-0.00361726878686941,-0.000447129167933547,-0.00567658689674699,-0.00260750795497167,-0.00798640600217215,-0.00328033895687163,-0.000439206385072666,-0.00624287053819517,-0.0116444593219045,-0.00544383504771329,-0.00464765964272029,-0.0023817690515191,-0.00272371245304637,-0.00278971787318572,-0.000271126885499129,-0.00954834093322532,-0.000280404672344581,-0.00577549143354883,-0.00102772608495449,-0.000456032933269679,-0.00192539091708266,-0.00052666509322874,-0.00567658689674699,-0.00269553239357379,-0.00567299564164259,-0.00244739476867739,-0.00167768064369156,-0.00736307630646138,-0.00416446310351581,-0.00577549143354883,-0.0023817690515191,-0.0012128064981658,-0.00538062008983342,-0.00260750795497167,-0.00338956359257381,-0.00139494923385985,-0.00404829910288784,-0.00529719576478671,-0.00230751993440359,-0.00169840738443305
"17:30851208:A:G",-0.00149225504725781,-9.96024893495928e-06,-4.26413709275764e-05,-1.99841057009209e-05,-0.00117918240407811,-0.00161684990683941,-1.55929496381546e-05,1.28081828094651e-05,2.18496309809524e-05,3.44374315019991e-06,-0.00413566088358053,-1.04280976982452e-05,-0.000940335302294315,7.26548056206866e-06,-0.00150639699138733,-0.00152140672708079,-0.00320317019038541,-3.48316950447014e-05,-8.11116450920579e-05,-9.96024893495928e-06,-0.00233102339611779,-0.00515594707283551,2.14048010471757e-05,6.73282541807652e-06,-1.61612272382428e-05,-0.00423787344843252,0.258075302297518,-2.16668406238796e-06,-1.67093628791193e-05,1.0092540080997e-05,-0.00155345169540411,-0.00268823181799061,-0.00536377503361951,-0.00310713007215302,-5.25199152461298e-05,-2.0212041255796e-05,-0.00265657029364164,-1.04280976982452e-05,1.30107404361368e-05,-0.00824051727172481,-9.50043629543984e-06,-7.29088035189562e-06,-0.00250299581805447,-0.0029483624064861,-0.00180463773149242,-0.0050244483295927,-9.39622834099652e-05,5.89837369702195e-06,-3.86024679777108e-05,-0.000296055283130592,-0.00432228916032962,8.35806972432351e-06,-1.41924713581432e-06,-0.00357450608708287,2.66192330844461e-05,4.4053149403922e-06,2.4604098594061e-05,-0.00392349895146182,-0.005223683938123,2.1752312804324e-06,-0.00211235533459941,-0.00211796265637076,-0.00169545733271903,-0.00332645267716369,-0.000162001400797251,2.1752312804324e-06,-0.0021421929778791,-6.85031856573204e-06,-0.00113371648566218,-9.96024893495928e-06,-1.1388662983336e-05,-2.70580295254064e-05,-0.00178894012087483,-0.000241443571330713,-0.00133162718160129,-8.72514674732372e-06,-0.00420301149293767,-1.61612272382428e-05,-0.000285425684844576,-0.00189990964731823,-5.99217862795598e-06,-0.000313938299357552,-1.41924713581432e-06,7.26548056206866e-06,-0.00337392314402774,-1.03082231817098e-06,-0.000818511552810541,-1.41924713581432e-06,-1.50933973666056e-05,-0.00271551259420111,3.74741497921605e-06,-0.00268823181799061,-0.00038378425150043,-0.00187931930473351,-0.00141740540169,2.6304693491852e-05,-5.16351293189388e-06,3.44374315019991e-06,-0.0038120874373373,2.07254553163949e-06,-0.00629147839249633,-0.00285834460692413,-0.00887711038359296,-9.82665375239833e-05,2.1752312804324e-06,-0.00591498359693343,1.35976367561241e-05,-0.00417308817738782,-3.72168141069551e-05,-2.11639079363835e-05,-9.50043629543984e-06,-0.00430862289313438,-0.00282650250359318,3.44374315019991e-06,2.82050184008398e-06,-6.41747780871782e-06,-0.00210640394462214,-0.00854378082141594,-6.85031856573204e-06,-0.0013937105055053,-3.88805859037333e-05,3.44374315019991e-06,-0.00211365492084692,-0.00297617037573961,-0.00282650250359318,-5.16351293189388e-06,3.44248348316256e-06,-0.00857899910446669,2.50068446749907e-06,3.76933088830356e-06,-2.97023906679073e-05,-4.75981272796133e-06,-0.00443255856022251,-0.00339628686580085,-0.00481285752161043,-3.45717057648187e-07,-6.901777012569e-05,-0.0013937105055053,-0.00194845158224144,-1.18817732968068e-05,-5.07050298885758e-05,-0.0010685903100276,2.6304693491852e-05,1.52206296215596e-05,3.44374315019991e-06,-0.00430388009620497,2.50068446749907e-06,-1.0552002907005e-06,-0.00186944049368876,-5.16351293189388e-06,-0.00183270476441244,-9.13365763342e-05,-0.00849160738234556,-0.00184642442343641,-0.00252440217461647,-6.97404384020217e-07,-0.00114156622818307,-0.0013937105055053,-0.00187318724663932,3.44248348227438e-06,-1.61612272382428e-05,-4.75981272796133e-06,-0.00407453993536055,6.18140114383436e-06,-0.00849160738234556,2.50068446749907e-06,-0.00115136947379302,-0.00087462447281883,-0.00194845158224144,-0.0060131308871032,-6.85031856573204e-06,-0.00467614640918335,-0.0012240539907804,-0.00226056777117822,-3.74372409943646e-05
"17:30851635:G:A",-0.00255277443966939,-9.9602489340711e-06,-0.00212099275018929,-1.99841056991445e-05,-0.00344668439770324,-0.00251920331229805,-1.55929496372664e-05,1.28081828121296e-05,-0.00154728363624379,3.44374315197626e-06,-0.0113187644765249,-1.04280976964688e-05,-0.000207103680748943,7.26548056384502e-06,8.87584697917276e-06,-0.00250096770692387,-0.00535394329068328,-3.48316950438132e-05,-2.84630526143914e-05,-9.9602489340711e-06,-0.00271767171362924,-0.00555390953862034,-0.00174070393823822,-0.00187838171768551,-1.61612272364664e-05,-7.21712853861689e-05,-2.16668406238796e-06,0.197939108517422,-1.67093628782311e-05,1.00925400818852e-05,-0.00338716503697434,-5.57424675395879e-06,-0.00227758395284372,-1.61612272364664e-05,2.03384917192295e-05,-2.02120412549078e-05,-0.00234927110234739,-1.04280976964688e-05,-0.00376191421682659,-7.40610258000984e-05,-9.5004362927753e-06,-0.00250613379803877,-0.000784813745993596,-9.15646120773772e-05,-6.54952539314024e-07,-0.000121821813110046,-0.000620178372033209,-0.00263356174153007,-1.74123278888771e-05,-2.4964242949288e-05,-0.00576769034977787,8.35806972521169e-06,-1.41924713403796e-06,1.05695685448381e-05,2.66192330862225e-05,4.40531494216856e-06,-0.000139709657528186,-0.00144904327898665,-0.00173721585217024,-0.00237541602405233,-0.000369952539236884,2.50068446838725e-06,-0.00210917576362402,2.68012370900905e-05,-0.00463283564529426,2.17523128132058e-06,-5.9921786270678e-06,-0.00255771472731947,-0.000166867820319716,-9.96024893318292e-06,-1.13886629806714e-05,-2.705802952363e-05,-0.000640444620686687,-0.000499710448159441,1.70661477980616e-05,-0.00204801628875906,-6.56436401502702e-06,-0.00336070869563887,-0.000499678172069196,-0.000267757634432542,-5.9921786270678e-06,-3.92069362664671e-06,-1.41924713403796e-06,7.26548056384502e-06,-0.0029661080097263,-0.00213456471758455,1.32097817280297e-05,-1.41924713403796e-06,-1.50933973657175e-05,-0.00488745820476311,3.7474149809924e-06,-5.57424675395879e-06,-8.72514674554736e-06,-0.00924777112801944,-4.24792386795048e-05,-0.00119661566376728,-5.1635129310057e-06,-0.00169570072095127,-0.00379501796718351,2.07254553252767e-06,-0.0104951769828103,-0.00255104541562812,-9.9602489340711e-06,-2.54081305568477e-05,2.17523128132058e-06,-0.0030234386922352,1.35976367579005e-05,2.50068447016361e-06,-0.000906326208957253,-2.11639079354953e-05,-9.5004362927753e-06,2.95847178906072e-05,5.61031513512944e-06,-0.00169570072095127,-0.00268891468497667,-6.41747780782964e-06,-3.6630225056733e-05,-0.00380404081663777,-0.00255771472731947,-1.03082231639462e-06,-0.000455839675660208,3.44374315197626e-06,-0.00184409733955171,-0.00266887118444448,5.61031513512944e-06,-5.1635129310057e-06,-0.00202185552519474,-0.00382812716207326,-0.00201682270971837,3.76933088919174e-06,4.58622524845964e-07,-4.75981272707315e-06,2.88238108741012e-05,-0.00155632277168305,-5.9921786270678e-06,-3.4571705587183e-07,-0.00162891002456522,-1.03082231639462e-06,-1.94283346024449e-05,-1.18817732941423e-05,-0.000296438413247557,-1.42242579226348e-06,-0.00119661566376728,-0.00294579639008674,-0.00169570072095127,2.77574443998674e-05,-0.0024904394902725,-1.05520028981232e-06,-1.1868716047303e-05,-5.1635129310057e-06,-0.00394600571632875,-0.00339387976625805,-0.00396582842673077,4.40531494128038e-06,-0.00221710298332134,-6.97404381355682e-07,3.44089577097861e-06,-1.03082231639462e-06,-1.26405517546502e-05,-0.00211779960618497,-1.61612272364664e-05,-4.75981272707315e-06,2.77273829212277e-05,6.18140114383436e-06,-0.00396582842673077,-0.0024904394902725,3.79475151923714e-06,-2.0568864807835e-05,-1.94283346024449e-05,-1.04280976964688e-05,-0.00255771472731947,3.00576335154901e-05,-5.88152935865338e-06,-3.75617398962191e-05,-0.00389035252289283
"17:30851730:A:G",-0.00246387064702347,-6.71598430441733e-05,-0.00320180833912875,-0.000127369897263918,-0.00272259365361904,3.96985523414273e-05,-0.00339551109527125,-0.00260113691837027,-0.00219875164722794,-0.00789006294075367,-0.00287590518394953,-0.00423114386191159,-0.000976050386424454,-0.000996122500001917,-0.00252140300386738,-0.00249507326044096,-0.00614844241536705,-0.000209696627676337,-0.000178484269685697,-6.71598430441733e-05,-0.00413128322127498,-0.00211628969029753,-0.00239914879980141,4.95237984621255e-05,-0.000761123894509552,-0.00600329674742639,-1.67093628791193e-05,-1.67093628782311e-05,0.34299284960373,7.68136754674131e-05,-0.000179723139287269,-3.90195178852082e-05,-0.00314582588655998,-0.000761123894509552,0.00010223337805737,-0.00120031112015884,-0.00336031235861967,0.000797069567815001,0.000101915952245513,-0.00444156139378027,-0.000426621295051,-5.13425794830269e-05,-0.00529477552186997,-0.00125626370621124,-2.47836089819486e-05,-0.00776245451559099,-0.00687313351132257,-0.00193753652948914,-0.00133540923238229,-0.00258509923521721,-0.00970700864357088,6.0566784783056e-05,-0.00148701494605508,-0.00165448505007504,-0.000978454729390954,2.93576789136551e-05,-0.004478761140712,-0.00843903520562961,-0.00230648998557381,-0.000188026098935978,-0.000155478619817906,-0.00146735755603977,-0.000735866661428553,-0.00354874470264122,-0.00832890388560692,-0.00285142926046245,-4.20413848223333e-05,-4.82021599736981e-05,-0.000405707113899645,-6.71598430441733e-05,-0.00230053994606827,-0.00114859111951038,-0.00478285203239803,-0.00725845407626657,-0.00441405790261573,-0.00503924295777569,-0.00309334177719833,-0.000105732265950564,-0.00384650030159062,-0.00374498895373065,-4.20413848223333e-05,-0.0033367017492143,-1.0998602203216e-05,-0.000996122500001917,-0.0113310506316173,-1.12480946912186e-05,-0.00179864254614071,-0.00320970057496428,-9.88113202815555e-05,-0.00349886060763094,2.71877142008492e-05,-3.90195178852082e-05,-0.00320870649599936,-0.00893408629726977,-0.000872313071895725,-0.00178423437018438,-3.60356885256152e-05,2.46636463563377e-05,-0.00420553118614109,-0.0034306660875254,-0.00226199755811685,-0.00248770901415352,-6.71598430441733e-05,5.61223376660536e-06,1.42462328813764e-05,-0.00925968284504375,-0.00244196733745028,-0.00181645942939745,-0.00080361409201668,-0.000502757968392942,-6.39925698520116e-05,-0.001154456844632,3.96985523414273e-05,2.46636463563377e-05,1.95203723549753e-05,-0.000245592727286414,5.67776689335275e-05,-0.0130673210373935,-4.82021599736981e-05,-1.12480946929949e-05,-0.000974766424033824,2.46636463563377e-05,-0.000123987025275163,-0.00238083247729737,3.96985523414273e-05,-3.60356885256152e-05,2.12388615903336e-05,-0.0131194100504084,1.68999694221128e-05,2.39810930606765e-05,4.54677867800513e-07,-3.30891872506456e-05,-0.000754388141549711,7.23180239035059e-05,-4.20413848232215e-05,-0.00017623609366435,-8.9149816080436e-06,-1.12480946929949e-05,6.20489460700924e-06,-8.02409085274292e-05,-0.000652423446332762,-0.00294484388727589,-0.00178423437018438,-0.00223608122943375,2.46636463563377e-05,-0.00307802218897546,1.68999694221128e-05,-8.19707849952778e-06,1.61433969640967e-05,-3.60356885256152e-05,-0.00608699751368569,5.99825607592308e-05,-0.0133799205384557,2.93576789118788e-05,-0.000244641894179942,-5.43056676338693e-06,-0.00284748399544288,-1.12480946929949e-05,-0.00100079573075984,2.12388615894454e-05,-0.00054163638948701,-3.30891872506456e-05,-0.00651075685630254,4.46731990750848e-05,-0.0133799205384557,1.68999694221128e-05,-0.00283853540042589,-0.000130998580328168,6.20489460700924e-06,-7.03675302933249e-05,-4.82021599736981e-05,-0.00125085392542168,-4.43291684488756e-05,-0.000195617454858521,-0.00261306405438866
"17:30852988:G:A",-9.49385033575112e-05,4.82336041596199e-05,4.73972239003473e-05,9.0885358283721e-05,-0.000446428609943261,-3.29851721811991e-05,-0.00134465023585051,-7.97274646240353e-05,-0.000672328272488976,-1.92364231388353e-05,1.48187503947739e-05,5.01475600342971e-05,-0.000677337695059066,-4.17999831130444e-05,-5.35296899855098e-05,-9.37099701889821e-05,-0.00267791870062339,0.000144871869558472,0.000120488361001314,-0.00680010920555585,-0.00338967527076139,-0.0014749419453004,-0.000157126421101772,-3.89262148567937e-05,7.47351303793664e-05,-0.000145963265835825,1.0092540080997e-05,1.00925400818852e-05,7.68136754674131e-05,0.142335668216528,0.000124579017908744,2.75752979668198e-05,-0.0011441092880915,7.47351303793664e-05,-0.000249571684828531,-0.00138048262950097,-0.00474353147387152,5.01475600342971e-05,-8.09784447097783e-05,-0.000377602076283345,4.63402151753556e-05,3.49487771691415e-05,-0.00101119766515279,-0.000760487358065554,-0.00418027445367386,-0.00150138893395635,-0.000677821879048857,-3.44952949946631e-05,-0.00115927222530132,0.000108593036202365,-0.00845891066544713,-5.0656481383804e-05,6.65467978144818e-06,-6.63978932315956e-05,-0.000219316740425413,-2.67713340011966e-05,-0.000506226699051204,-0.00251323741699228,-0.000421234723479103,-1.29291249972852e-05,-0.00126098188361912,-1.45320244069325e-05,-8.16484260104389e-05,-0.00111709804247706,-0.002963050994639,-1.29291249972852e-05,2.93884296915792e-05,3.30748358070565e-05,-0.00139393077051864,4.8233604160508e-05,5.40385236051932e-05,0.000117614044023107,-0.000797080242156412,-0.00459104975182001,-0.000660238625809662,-0.000109718884155008,-0.00434148944423107,7.47351303793664e-05,-0.00467380960042352,3.30748358070565e-05,2.93884296915792e-05,-0.000946889498695924,6.65467978144818e-06,-4.17999831130444e-05,-0.00614808369774433,2.33842382879601e-06,-8.22155134025948e-05,6.65467978144818e-06,7.06453039134303e-05,4.21249725270911e-05,-2.0770725516428e-05,2.75752979668198e-05,-0.000995100316967701,-0.00087601058959752,0.000170053095573941,-0.000215801348263156,-0.000997632228322942,-0.0006634607473881,-0.00248349655391245,-1.51819225804317e-05,-0.000802272285875816,-0.000759485845538421,4.82336041596199e-05,-0.00108778233988627,-1.29291249972852e-05,-0.00281220292274575,-8.46488338055451e-05,-0.0046119559767499,0.000152360312782207,9.5168476258678e-05,-0.0031876886624822,-0.00029078260585802,-3.29851721811991e-05,-0.0006634607473881,-0.000934977403848514,3.12214990252357e-05,-0.00065261871322253,-0.000840536923234936,3.30748358070565e-05,2.33842382790783e-06,0.000157492519506697,-1.92364231388353e-05,-0.00486594017047803,-0.000715968033482284,-3.29851721811991e-05,-0.000997632228322942,-2.19204509290805e-05,-0.000837989345798817,-1.45320244060443e-05,-2.3556186239837e-05,-4.640526176658e-06,2.40075632964576e-05,-0.000265859635064203,-5.77191423190015e-05,2.93884296915792e-05,1.63678255571398e-06,-0.00132555800382583,2.33842382790783e-06,-0.000720771266339959,5.6016225417288e-05,0.000195454383321803,-0.00104546357834057,-0.000215801348263156,-0.000581855801177866,-0.0006634607473881,-0.00024118745766355,-0.000978491308852192,-0.00140149383497867,-0.000757446830112585,-0.000997632228322942,0.00012876049863042,-0.00332913727028483,-0.00163735554511124,-0.00429335044639334,-0.000931796963777209,3.29129625331603e-06,-0.00100986569512518,2.33842382790783e-06,-0.0007541150463517,-2.19204509290805e-05,7.47351303793664e-05,-0.00353643553517635,-0.000240816184764903,-3.59886593708225e-05,-0.00163735554511124,-0.000978491308852192,-0.0010060471566451,9.30153837348513e-05,-0.000720771266339959,5.01475600342971e-05,3.30748358070565e-05,-0.000316184201699876,2.655420214559e-05,-0.0052340095216028,-0.00291672307094082
"17:30858177:T:C",0.00018486966009057,-0.000110249041744837,-0.000596079386632198,-0.000207875228290355,0.000120611059297282,6.26804067831443e-05,-0.00221581285480532,0.000161608015678105,-0.00181489855958894,3.98099915317474e-05,-0.00241205157121449,-0.000115783681881254,0.0006370750416691,8.83592905918107e-05,0.000104229963889146,0.000181099208893087,-0.00487285035689489,-0.000342576694360552,-0.000295254585041427,-0.0005198949873364,0.000157212873136636,0.000172380629241076,-0.000179661358629346,8.00126738047524e-05,-0.000173664444645283,-0.00493306215557876,-0.00155345169540411,-0.00338716503697434,-0.000179723139287269,0.000124579017908744,0.242342711470028,-6.46564101245417e-05,3.89517749539436e-05,-0.000173664444645283,-0.00216825846789215,-0.000217788566549082,0.000119451498711953,-0.000115783681881254,0.000165339782864038,-0.00147248474796546,-0.000104783806638586,-8.60209365978193e-05,-0.0103357651667668,-0.00164004461799028,-0.00208114380098756,-0.00390316534338275,-0.000800370390496852,6.70958767861052e-05,-0.000204706923638831,-0.000259849161451164,-0.00107849989083242,-0.00290985708425229,-1.91725015392663e-05,0.000121534365470133,0.000434967501111494,-0.0033367348872817,0.000881539404318232,-0.00557970161253607,-0.00107107797223138,2.15473627660501e-05,7.24072633593309e-05,2.61993464478749e-05,-0.00148887027314082,-0.00035649458928777,-0.00412376119306801,-0.000285103518310237,-6.98958464280253e-05,-8.05768077896118e-05,-0.000668614329863537,-0.000110249041744837,-0.000859695656093784,-0.000273848534118493,-0.00259516354465816,-0.0105602822266246,-0.000217092255352824,-0.000390068828575174,-0.000164992218562254,-0.000173664444645283,-0.0102020130209071,-8.05768077887237e-05,-6.98958464280253e-05,-0.000353846021520887,-1.91725015392663e-05,8.83592905918107e-05,-0.00196928355643244,-2.31358680178317e-05,-0.00196366357714872,-1.91725015392663e-05,-0.000161777890514969,-0.0036414656391921,4.42352975884575e-05,-6.46564101245417e-05,-0.000395256993786397,-0.00117078318732133,-0.000406326680645996,-0.00185216200350968,-5.94826548860894e-05,3.98099915317474e-05,-0.00399264594889326,-0.000289592716443465,-0.000255676555337203,-0.00159012373468936,-0.000110249041744837,-0.00469446068580837,2.15473627660501e-05,-0.00767224763590146,0.000176260203588186,2.61993464487631e-05,-0.00465447616112868,-0.000403594552604858,-0.000104783806638586,-0.000532321133921876,-0.000283607122058882,3.98099915317474e-05,-0.00299054785754382,-7.52022171912614e-05,-0.00525006964047048,-0.00779148324061785,-8.05768077896118e-05,-2.31358680187199e-05,-0.0043772542071876,-0.00445203253423454,-0.00232779821681817,-0.00165382278085513,-0.000283607122058882,-5.94826548860894e-05,3.01213253806054e-05,-0.00766713173638234,2.61993464487631e-05,-0.00300039542368058,-0.000701023828401759,-5.43733583073802e-05,-0.000659489464863938,-0.00150428906585276,-6.98958464280253e-05,-4.70413127295899e-06,-0.00218935141160514,-2.31358680187199e-05,-0.00537486011352151,-0.000132817446857558,-0.00517675140373708,-6.6136778240633e-06,-0.00185216200350968,0.000195891085606803,3.98099915317474e-05,-0.000619635952773478,-0.00304063584280101,-1.42892708741016e-05,-0.00544112344848635,-5.94826548860894e-05,-0.00408117930744911,-0.0031043727851916,-0.00742595611516661,-0.00715142516909406,-0.001415955800395,-9.46685575797801e-06,-2.74698034967713e-05,-2.31358680187199e-05,-0.00543876296197787,3.01213253806054e-05,-0.000173664444645283,-0.0006672621185837,-0.000476118293984307,7.1455721343483e-05,-0.00742595611516661,-0.00304063584280101,-3.27522298135818e-05,-0.000214081319860782,-0.00537486011352151,-0.000115783681881254,-8.05768077896118e-05,-0.000735111350318007,-7.72538732070061e-05,-0.00219173862287469,-6.99042159002516e-06
