"","17:73583994:G:A","17:73586127:C:T","17:73586325:G:A","17:73586413:C:T","17:73587784:A:G","17:73589707:A:C","17:73592125:T:A","17:73592995:G:C","17:73594393:C:G","17:73595441:C:T","17:73599603:C:T","17:73600215:T:C","17:73601232:A:G","17:73602486:C:G","17:73603086:T:C","17:73603712:A:G","17:73607371:C:G","17:73608203:T:C","17:73608847:G:A","17:73608905:G:A","17:73609113:C:T","17:73610976:G:A","17:73611467:A:G","17:73611745:G:T","17:73615851:G:A","17:73617158:C:T","17:73617385:G:C","17:73621432:A:G"
"17:73583994:G:A",0.015291526393443,-7.36164048822374e-05,-0.00227509606707255,-0.00174764885239753,-5.29517165812621e-05,-0.000660795232478861,9.99361693398981e-06,-0.00281458972812221,-0.00120958368971102,-7.17725393784008e-06,0.00011727963248287,-0.000290691537563781,0.000174558940931213,-0.000316958322300387,8.61491176316065e-05,-0.00107998349140015,0.000680979795736114,-0.000248397094586572,-0.00394806877169795,-0.00162904585440238,-3.42490576885623e-05,6.63848953488255e-05,0.000125136880939181,-9.10002066589755e-05,-0.000118691134923132,5.3506050213592e-05,-2.03947845598407e-05,1.34238773048523e-05
"17:73586127:C:T",-7.36164048822374e-05,0.00938405631652017,-0.00205604055825859,1.84597074959214e-05,-0.000770770471795856,-0.000453463867028603,-0.0017035983654452,-1.67093628791193e-05,-0.000139227445584922,-1.0998602203216e-05,-7.96846509834026e-05,-0.000429375375466279,0.000258728433164102,-0.000235292956090483,-0.00173185715221091,-7.69072598281184e-05,-0.000231994699846361,8.49978609194224e-05,0.00121587650173183,-0.000264688976605143,-5.13425794830269e-05,9.77202608760663e-05,-0.00249231119679383,-0.000134674227848741,-0.000175645748027975,7.90197702169593e-05,-3.01793220174318e-05,1.95203723549753e-05
"17:73586325:G:A",-0.00227509606707255,-0.00205604055825859,0.0450760444350125,-0.00115207599432221,-0.00230868903549419,-0.00670656218530929,-0.000497221530318726,-0.00110789257948962,-0.00310789085665331,1.94490469969111e-05,-0.00345229419120674,-4.24200451512036e-05,-0.00572908090379887,0.000719304213943062,-0.00138845214880412,0.000231226088788006,-0.000653609730084881,-0.00297929268891117,-0.00474467507288967,-0.00221105645124453,-0.00333301950379195,-0.00173788826024524,-0.00124381486447156,0.000421005965749899,0.000536723671579864,-0.000293263433516877,0.000100812139843143,-8.42294608780492e-05
"17:73586413:C:T",-0.00174764885239753,1.84597074959214e-05,-0.00115207599432221,0.0267480363016266,-0.00140944404918519,-0.000752870714198828,-0.00263173318123755,3.1095364541045e-06,-0.000800742261573895,-0.0023834658003592,-0.00148582655211271,-0.000191738649689022,-0.000877833943305539,2.78647808720223e-05,-0.000147882053240345,-0.00135849061388083,-0.000338699688256838,-0.00391511595214755,1.84597074959214e-05,-0.000231621224449974,-3.13626162542491e-05,-0.00253314483607703,-0.000387028192619709,-0.00125497010709719,-0.00316482949606733,-2.08151309495364e-05,6.22231936020512e-06,-4.81244388250701e-06
"17:73587784:A:G",-5.29517165812621e-05,-0.000770770471795856,-0.00230868903549419,-0.00140944404918519,0.0935782647118932,-0.000947266718356765,-0.00242158241407076,-0.0064038506491837,-0.0039703977042298,-0.00497198540710997,-0.00516965779847833,-0.00923904845488099,-0.00358953411131191,-0.0053902099964569,-0.000420022195199987,-0.00591465676116165,-0.000141088356318431,-0.00647981384529883,-0.00320317375751156,-0.00098514604831923,-0.00467330716683723,-0.000930843182138652,-0.00373358350070108,-0.00186460092348195,-0.00163572311110638,-0.0031637375005733,-0.000185310875113309,-0.013601868960996
"17:73589707:A:C",-0.000660795232478861,-0.000453463867028603,-0.00670656218530929,-0.000752870714198828,-0.000947266718356765,0.0630725757900579,-0.000172587521089618,-0.000116181279175898,-0.00342851965509716,-0.00355879240543455,-0.00432933220188714,-0.000368008916996843,-0.0021456327838858,-0.000219594194703632,-0.00235420428175814,-0.000247417925554494,-0.00424457377459087,-0.002148684452286,-0.00129326386660988,-0.00635140993164818,-0.00765208112808979,-0.00203623531136365,-0.00473302367540818,-0.00231245094962507,-0.00129527186411815,-0.00292684065463344,0.000134628367041145,-0.00175213866577018
"17:73592125:T:A",9.99361693398981e-06,-0.0017035983654452,-0.000497221530318726,-0.00263173318123755,-0.00242158241407076,-0.000172587521089618,0.0178806030106573,2.1752312804324e-06,1.72244752443262e-05,1.44049686667813e-06,-3.4036128858439e-05,-0.00617325238779642,-5.33528645041415e-05,2.63977220473777e-05,-2.35735240803336e-05,-0.00188350085653077,2.5925493217116e-05,-0.000436840770698943,-0.0017035983654452,1.00677201375632e-05,6.95991327770429e-06,-1.70123699323455e-05,-0.000255146287282848,1.71434641371704e-05,2.11985822531346e-05,-1.32668453804996e-05,4.38989509099486e-06,-3.21620847199e-06
"17:73592995:G:C",-0.00281458972812221,-1.67093628791193e-05,-0.00110789257948962,3.1095364541045e-06,-0.0064038506491837,-0.000116181279175898,2.1752312804324e-06,0.0202762086216541,-0.00234829997292785,-1.41924713581432e-06,2.05361713332408e-05,-0.000288216904293925,-0.000879101385372394,-0.00105395479950054,1.60242920950182e-05,-1.1388662983336e-05,-0.00145869858611736,-0.000241591565499633,-1.67093628791193e-05,-1.13597676376642e-05,-7.29088035189562e-06,1.26020255049042e-05,-0.0020682470379505,-2.11639079363835e-05,-0.00147277107683053,1.03233624981769e-05,-4.36298639261423e-06,2.82050184008398e-06
"17:73594393:C:G",-0.00120958368971102,-0.000139227445584922,-0.00310789085665331,-0.000800742261573895,-0.0039703977042298,-0.00342851965509716,1.72244752443262e-05,-0.00234829997292785,0.0275207658517873,-1.4112542666922e-05,0.000103690001608925,-7.47178944795479e-05,-0.000307813067118801,-0.000611721982677338,-0.00429057530735388,-9.76650638184751e-05,-0.0038722769447439,-0.00031881082549079,-0.000139227445584922,-0.000139723104640055,-0.00158922246626858,0.000119373304840131,-0.000986130322303325,-0.000171888643360596,-0.000225670797536104,9.70558344519645e-05,-3.78425510838554e-05,2.3951076972395e-05
"17:73595441:C:T",-7.17725393784008e-06,-1.0998602203216e-05,1.94490469969111e-05,-0.0023834658003592,-0.00497198540710997,-0.00355879240543455,1.44049686667813e-06,-1.41924713581432e-06,-1.4112542666922e-05,0.0253034512990693,-0.00179780320619649,-0.00328629670083647,1.73698084653395e-05,-0.000808139342567848,1.05764137297015e-05,-7.49452848403109e-06,-2.55820328645129e-05,-0.000148691151918179,-1.0998602203216e-05,-0.00220843390945991,-4.79234750283553e-06,8.31103193466021e-06,-0.00193672199468242,-0.00111697963276924,-1.87131661899542e-05,-0.000995377113397922,-2.87469436344168e-06,-0.00204374841477861
"17:73599603:C:T",0.00011727963248287,-7.96846509834026e-05,-0.00345229419120674,-0.00148582655211271,-0.00516965779847833,-0.00432933220188714,-3.4036128858439e-05,2.05361713332408e-05,0.000103690001608925,-0.00179780320619649,0.053219507284811,-0.00680139255048395,-0.000268120745832157,-0.000622393049787284,-0.00011350435755908,-0.00106249439056594,-0.000226128642648149,-0.006142237547063,-7.96846509834026e-05,-0.0086819431397327,-0.00185204682336781,-0.00308453858297408,-0.00589930203500622,-0.00125719135770286,-0.000184646396261812,-0.000253842049479758,-0.000389849965287681,-0.000193062075776851
"17:73600215:T:C",-0.000290691537563781,-0.000429375375466279,-4.24200451512036e-05,-0.000191738649689022,-0.00923904845488099,-0.000368008916996843,-0.00617325238779642,-0.000288216904293925,-7.47178944795479e-05,-0.00328629670083647,-0.00680139255048395,0.0539648613139989,-0.00189443355741759,-0.000744181149811673,-0.00104718069383569,-0.000576549075940846,-0.00472503707123906,-0.00262620450433149,-0.000971356597345263,-0.00453420806625093,-0.00118990756298309,0.000343541717140461,-0.00125186651235065,-0.000688340223396366,-0.000956012382420823,-0.00586620945450012,-0.000113995946654732,6.22391849773862e-05
"17:73601232:A:G",0.000174558940931213,0.000258728433164102,-0.00572908090379887,-0.000877833943305539,-0.00358953411131191,-0.0021456327838858,-5.33528645041415e-05,-0.000879101385372394,-0.000307813067118801,1.73698084653395e-05,-0.000268120745832157,-0.00189443355741759,0.0256126889915262,-0.00310424318326774,-0.00455372453453684,0.000179913714172031,-0.00126519691031124,-0.000919991483315563,0.000258728433164102,0.000172197575648347,0.000110939008611588,-0.000284993011398171,-0.00144899608216731,0.000324984803958372,0.000415880198929131,-0.000219439391334397,7.69331730658962e-05,-6.14351227579135e-05
"17:73602486:C:G",-0.000316958322300387,-0.000235292956090483,0.000719304213943062,2.78647808720223e-05,-0.0053902099964569,-0.000219594194703632,2.63977220473777e-05,-0.00105395479950054,-0.000611721982677338,-0.000808139342567848,-0.000622393049787284,-0.000744181149811673,-0.00310424318326774,0.0246259791773094,0.000253430804843191,-0.000167112736630948,-0.000540281136006904,-0.0026138054767193,-0.000235292956090483,-0.00122376549378966,-0.000590708933201789,-0.00154382191050928,-0.00377452502315467,-0.000287127152262201,-0.000374031487048399,0.000167858927072828,-6.44631284769659e-05,-0.0012992112150334
"17:73603086:T:C",8.61491176316065e-05,-0.00173185715221091,-0.00138845214880412,-0.000147882053240345,-0.000420022195199987,-0.00235420428175814,-2.35735240803336e-05,1.60242920950182e-05,-0.00429057530735388,1.05764137297015e-05,-0.00011350435755908,-0.00104718069383569,-0.00455372453453684,0.000253430804843191,0.0336012616604031,8.91549148596127e-05,-0.00214311596924777,-0.00394027904996896,-0.00173185715221091,-0.0014160959381373,-0.00223196430908246,-0.000498751012410814,-0.00109419010660528,0.000154434100315015,-0.00320696210802751,-0.000475293732391968,3.76758646467579e-05,-0.00143922154186171
"17:73603712:A:G",-0.00107998349140015,-7.69072598281184e-05,0.000231226088788006,-0.00135849061388083,-0.00591465676116165,-0.000247417925554494,-0.00188350085653077,-1.1388662983336e-05,-9.76650638184751e-05,-7.49452848403109e-06,-0.00106249439056594,-0.000576549075940846,0.000179913714172031,-0.000167112736630948,8.91549148596127e-05,0.0245125100961161,-0.000764950727555558,-0.00421304611135387,-7.69072598281184e-05,-0.000152910258353067,-3.57445835224013e-05,-0.00201899770801806,-0.000416605465214381,-0.000639466159380042,-0.00425872688423823,5.55168423748142e-05,-2.12450007737175e-05,1.39398687064585e-05
"17:73607371:C:G",0.000680979795736114,-0.000231994699846361,-0.000653609730084881,-0.000338699688256838,-0.000141088356318431,-0.00424457377459087,2.5925493217116e-05,-0.00145869858611736,-0.0038722769447439,-2.55820328645129e-05,-0.000226128642648149,-0.00472503707123906,-0.00126519691031124,-0.000540281136006904,-0.00214311596924777,-0.000764950727555558,0.0285993244087961,-0.0021123824223106,-0.00399728065184313,-0.000945422534807783,-0.00128593475158656,0.000198716924547426,-1.57548440062882e-05,-0.000283768152376851,-0.00037107827711047,0.000162724787068136,-6.30891055353189e-05,3.82736000439365e-05
"17:73608203:T:C",-0.000248397094586572,8.49978609194224e-05,-0.00297929268891117,-0.00391511595214755,-0.00647981384529883,-0.002148684452286,-0.000436840770698943,-0.000241591565499633,-0.00031881082549079,-0.000148691151918179,-0.006142237547063,-0.00262620450433149,-0.000919991483315563,-0.0026138054767193,-0.00394027904996896,-0.00421304611135387,-0.0021123824223106,0.0690157134025009,-0.00294654963743657,0.000716459455369911,-0.000201984013320722,-0.0140321029127257,-0.00424948237676404,-0.00155949175297199,-0.00207646577716281,-0.00561158075581858,0.000267601488313396,7.80699609972402e-05
"17:73608847:G:A",-0.00394806877169795,0.00121587650173183,-0.00474467507288967,1.84597074959214e-05,-0.00320317375751156,-0.00129326386660988,-0.0017035983654452,-1.67093628791193e-05,-0.000139227445584922,-1.0998602203216e-05,-7.96846509834026e-05,-0.000971356597345263,0.000258728433164102,-0.000235292956090483,-0.00173185715221091,-7.69072598281184e-05,-0.00399728065184313,-0.00294654963743657,0.0237323578422135,-0.000264688976605143,-5.13425794830269e-05,9.77202608760663e-05,0.000333492116488365,-0.000134674227848741,-0.000175645748027975,7.90197702169593e-05,-3.01793220174318e-05,1.95203723549753e-05
"17:73608905:G:A",-0.00162904585440238,-0.000264688976605143,-0.00221105645124453,-0.000231621224449974,-0.00098514604831923,-0.00635140993164818,1.00677201375632e-05,-1.13597676376642e-05,-0.000139723104640055,-0.00220843390945991,-0.0086819431397327,-0.00453420806625093,0.000172197575648347,-0.00122376549378966,-0.0014160959381373,-0.000152910258353067,-0.000945422534807783,0.000716459455369911,-0.000264688976605143,0.0362868677118029,-0.00228693818911196,6.59520774171085e-06,-0.000311789900987236,-0.00010467361505917,-0.000521257547881682,5.03876471826814e-05,-2.14392967263777e-05,-0.00274495709203304
"17:73609113:C:T",-3.42490576885623e-05,-5.13425794830269e-05,-0.00333301950379195,-3.13626162542491e-05,-0.00467330716683723,-0.00765208112808979,6.95991327770429e-06,-7.29088035189562e-06,-0.00158922246626858,-4.79234750283553e-06,-0.00185204682336781,-0.00118990756298309,0.000110939008611588,-0.000590708933201789,-0.00223196430908246,-3.57445835224013e-05,-0.00128593475158656,-0.000201984013320722,-5.13425794830269e-05,-0.00228693818911196,0.0299211019934327,4.43668448459889e-05,-0.00286320535760032,-6.3920377448845e-05,-8.40660078127442e-05,3.58515790033209e-05,-1.40079136015103e-05,9.21980922008458e-06
"17:73610976:G:A",6.63848953488255e-05,9.77202608760663e-05,-0.00173788826024524,-0.00253314483607703,-0.000930843182138652,-0.00203623531136365,-1.70123699323455e-05,1.26020255049042e-05,0.000119373304840131,8.31103193466021e-06,-0.00308453858297408,0.000343541717140461,-0.000284993011398171,-0.00154382191050928,-0.000498751012410814,-0.00201899770801806,0.000198716924547426,-0.0140321029127257,9.77202608760663e-05,6.59520774171085e-06,4.43668448459889e-05,0.0334001814329357,-0.00381053905695339,-0.0019489977965268,0.000154938040912711,-8.01314961691446e-05,2.85419301508938e-05,-2.09964302131382e-05
"17:73611467:A:G",0.000125136880939181,-0.00249231119679383,-0.00124381486447156,-0.000387028192619709,-0.00373358350070108,-0.00473302367540818,-0.000255146287282848,-0.0020682470379505,-0.000986130322303325,-0.00193672199468242,-0.00589930203500622,-0.00125186651235065,-0.00144899608216731,-0.00377452502315467,-0.00109419010660528,-0.000416605465214381,-1.57548440062882e-05,-0.00424948237676404,0.000333492116488365,-0.000311789900987236,-0.00286320535760032,-0.00381053905695339,0.0616959172455434,-0.0132080853912671,-0.00207502194235598,-0.000390153469764343,9.84911457111437e-05,-0.00360751275227145
"17:73611745:G:T",-9.10002066589755e-05,-0.000134674227848741,0.000421005965749899,-0.00125497010709719,-0.00186460092348195,-0.00231245094962507,1.71434641371704e-05,-2.11639079363835e-05,-0.000171888643360596,-0.00111697963276924,-0.00125719135770286,-0.000688340223396366,0.000324984803958372,-0.000287127152262201,0.000154434100315015,-0.000639466159380042,-0.000283768152376851,-0.00155949175297199,-0.000134674227848741,-0.00010467361505917,-6.3920377448845e-05,-0.0019489977965268,-0.0132080853912671,0.0300397073623255,-0.000215347203382343,9.8015443436239e-05,-3.72767989436085e-05,-0.00365920233257722
"17:73615851:G:A",-0.000118691134923132,-0.000175645748027975,0.000536723671579864,-0.00316482949606733,-0.00163572311110638,-0.00129527186411815,2.11985822531346e-05,-0.00147277107683053,-0.000225670797536104,-1.87131661899542e-05,-0.000184646396261812,-0.000956012382420823,0.000415880198929131,-0.000374031487048399,-0.00320696210802751,-0.00425872688423823,-0.00037107827711047,-0.00207646577716281,-0.000175645748027975,-0.000521257547881682,-8.40660078127442e-05,0.000154938040912711,-0.00207502194235598,-0.000215347203382343,0.0213698351747356,0.000126066553775672,-4.82917200610444e-05,3.02276544053015e-05
"17:73617158:C:T",5.3506050213592e-05,7.90197702169593e-05,-0.000293263433516877,-2.08151309495364e-05,-0.0031637375005733,-0.00292684065463344,-1.32668453804996e-05,1.03233624981769e-05,9.70558344519645e-05,-0.000995377113397922,-0.000253842049479758,-0.00586620945450012,-0.000219439391334397,0.000167858927072828,-0.000475293732391968,5.55168423748142e-05,0.000162724787068136,-0.00561158075581858,7.90197702169593e-05,5.03876471826814e-05,3.58515790033209e-05,-8.01314961691446e-05,-0.000390153469764343,9.8015443436239e-05,0.000126066553775672,0.0212082623876677,2.28334189147361e-05,-0.0019364913461839
"17:73617385:G:C",-2.03947845598407e-05,-3.01793220174318e-05,0.000100812139843143,6.22231936020512e-06,-0.000185310875113309,0.000134628367041145,4.38989509099486e-06,-4.36298639261423e-06,-3.78425510838554e-05,-2.87469436344168e-06,-0.000389849965287681,-0.000113995946654732,7.69331730658962e-05,-6.44631284769659e-05,3.76758646467579e-05,-2.12450007737175e-05,-6.30891055353189e-05,0.000267601488313396,-3.01793220174318e-05,-2.14392967263777e-05,-1.40079136015103e-05,2.85419301508938e-05,9.84911457111437e-05,-3.72767989436085e-05,-4.82917200610444e-05,2.28334189147361e-05,0.000930420848445301,-0.000623747178974732
"17:73621432:A:G",1.34238773048523e-05,1.95203723549753e-05,-8.42294608780492e-05,-4.81244388250701e-06,-0.013601868960996,-0.00175213866577018,-3.21620847199e-06,2.82050184008398e-06,2.3951076972395e-05,-0.00204374841477861,-0.000193062075776851,6.22391849773862e-05,-6.14351227579135e-05,-0.0012992112150334,-0.00143922154186171,1.39398687064585e-05,3.82736000439365e-05,7.80699609972402e-05,1.95203723549753e-05,-0.00274495709203304,9.21980922008458e-06,-2.09964302131382e-05,-0.00360751275227145,-0.00365920233257722,3.02276544053015e-05,-0.0019364913461839,-0.000623747178974732,0.032764644963283
