"","2:192119381:G:A","2:192119918:G:T","2:192120913:G:A","2:192121380:A:G","2:192123076:A:G","2:192126306:C:G","2:192127435:C:T","2:192127584:G:C","2:192129657:G:T","2:192132174:A:G","2:192133660:G:T","2:192135696:T:C","2:192139927:G:A","2:192140012:T:A","2:192140293:T:C","2:192140872:C:T","2:192143864:A:G","2:192145021:G:C","2:192145857:T:C","2:192153312:A:G","2:192154412:A:G","2:192160970:G:A","2:192161647:A:T","2:192162118:T:G","2:192162303:G:A","2:192166747:T:C","2:192169095:G:A","2:192171317:G:A","2:192171646:A:G","2:192173215:T:C","2:192175698:T:C","2:192175912:T:C","2:192176595:G:A","2:192178502:C:G","2:192179273:T:C","2:192182151:A:C","2:192182849:C:T","2:192190700:G:T","2:192192027:A:G","2:192198080:C:T","2:192199817:A:G","2:192202918:T:C","2:192203263:C:A","2:192206947:C:T","2:192210663:C:G","2:192211228:A:G","2:192213672:T:G","2:192215990:G:A","2:192220237:T:G","2:192226035:A:G","2:192229060:A:G","2:192231178:T:G","2:192232398:C:T","2:192233424:A:G","2:192234692:A:G","2:192240539:T:G","2:192242859:G:C","2:192243746:T:C","2:192244444:T:C","2:192249630:T:A","2:192258274:G:C","2:192260077:T:G","2:192260494:T:C","2:192263827:C:A","2:192263881:A:G","2:192265976:T:C","2:192266217:G:A","2:192267027:T:C","2:192269721:A:G","2:192270799:C:T","2:192273590:A:G","2:192276093:G:A","2:192277371:C:G","2:192279745:C:T","2:192282535:A:G","2:192283504:C:T","2:192283553:A:G","2:192284031:G:A","2:192284037:T:C","2:192286201:C:T","2:192288040:A:G","2:192289938:G:A"
"2:192119381:G:A",0.106507896294618,-0.00246782968794079,-0.00368019345183512,-6.98210695961876e-05,-0.000943190285062734,-0.000466528198844074,-3.8880585901957e-05,-0.000399411952027862,-0.00159508458429158,0,-0.00269272006818344,-0.0041230474478966,-9.05481323378865e-05,-0.00188264370407687,-0.000215883360569435,-0.00181730938152747,-0.00387632957526041,0.000105137886299289,0.000112172632078078,-0.00422686975513642,-0.000885567926644626,-1.31432812660037e-05,-0.00188264370407687,-0.00293360468010384,0.000167890648858027,-0.0041230474478966,-0.000215883360569435,-0.00394878707088164,-0.00649108056563641,-0.000156642998715206,0.000157492519506697,-0.000127250406293911,-0.00299559070435595,-0.000200193336279852,4.4328414463557e-05,0.000152192563227516,0.00105168594640404,0.000167890648858027,0.000226389316724251,-0.00191723406755973,-0.00299053740537847,-0.00596191169269877,-6.98210695961876e-05,0.00131560336683378,-0.00150664183596927,-0.000164236034711607,-0.00191723406755973,0.000152192563227516,-0.00305250551212666,-6.27266165054152e-06,-0.000156642998715206,-0.0054610259168193,-1.26261717738885e-05,-0.000217349111768961,-9.05481323378865e-05,-0.00136216579783888,-9.05481323378865e-05,0.000208763229802678,-0.000149149837065821,-1.26261717738885e-05,-0.00201943302693319,-0.00150673408862989,3.82736000439365e-05,5.03057592622369e-05,-0.0036637912637465,-0.000248544416283636,3.21398085194602e-05,-0.00259330370697075,-0.00140748754309428,-1.26261717738885e-05,-0.00208691376961578,0.000106640252951706,-0.00214642153736255,-0.000149149837065821,-0.00023721537327237,0.000135873229015537,-0.00387755868355999,-0.00142577394790067,-0.00530648814492007,-0.00477884710775545,-0.000225371685964149,-0.00134840503495326
"2:192119918:G:T",-0.00246782968794079,0.118522628695706,9.54060552249558e-05,3.53708539631015e-05,-0.00389070865301022,0.000198401250679936,-0.00255690606266246,-0.00165915284951623,-0.00466113179415473,0,-0.000831578603726513,6.29764060842142e-05,4.29191559518927e-05,-0.00768125264855701,-0.00367447336977822,-0.00012655801514061,0.000128714487848569,-8.87138191441039e-05,-6.33621268351092e-05,6.96343807589095e-05,0.000183614457070824,-5.88572655679798e-06,-0.00768125264855701,-2.23771969949382e-05,-9.62872741228082e-05,6.29764060842142e-05,-0.00367447336977822,0.000122701575244299,-0.0029566208400631,7.5843652354024e-05,-9.24668729629374e-05,6.52658935074157e-05,-0.000920894784822046,9.980995219383e-05,-2.68699662910876e-05,-0.00154812787261527,-0.000247173445338866,0.000248727513802116,-0.000146390463789281,-0.00778150784144849,-0.00438539264475857,-0.0017362480982257,3.53708539631015e-05,-0.00389792736713801,2.07290080647127e-05,-0.00447106796874674,-0.00778150784144849,-9.05259015615556e-05,-0.00404869783709838,2.31983235732258e-06,7.5843652354024e-05,-0.00255718909410163,4.66325725501093e-06,0.000146135072392362,-0.00223826357609358,-0.000125808046003151,4.29191559518927e-05,-0.000124778596199526,-0.00270161290633997,4.66325725501093e-06,-6.13129116393551e-05,-0.000128318244752457,-2.4635256126615e-05,-2.90816815784467e-05,9.83164310754958e-05,0.000116807947504682,-2.23771969949382e-05,-0.0036232855141316,-0.000245970091243386,4.66325725501093e-06,-0.00696180138766422,-0.00686012709839012,-0.00132241069768524,-0.00270161290633997,-1.77895796600325e-05,-0.00332813642892926,-8.87956956470148e-05,-0.00280810028424305,-0.00263059614248995,0.000111030266280565,-0.0023022976864393,-0.000460788112706112
"2:192120913:G:A",-0.00368019345183512,9.54060552249558e-05,0.10634924287289,-2.9115733268803e-05,0.000174528446168054,-0.00018294387113027,-0.00253294525418379,-0.000170484085840528,-0.00010744936196172,0,-0.0010180482374933,-0.00320033266101261,-3.69823448300721e-05,-0.00246682337233217,-0.00400104451776251,8.90860396047799e-05,-0.00109929187856483,-0.00234742858904191,4.69685936499431e-05,-0.00507375700171453,-0.00117986240388657,-0.00629333277385147,-0.00246682337233217,1.48907563408684e-05,6.98722275505048e-05,-0.0052673718229963,-0.00400104451776251,-0.00137156005414862,-1.48919463001107e-05,-0.00125541181280031,6.6241521603061e-05,-5.39126071998908e-05,-0.0019048209288286,-0.000447668931576217,-0.00372947418098057,6.43886626239265e-05,-0.000195026939188381,6.98722275505048e-05,-0.00178909591831111,-0.00254146984486958,-0.000210177086247043,-0.00281207078631462,-2.9115733268803e-05,-0.000454483798192129,0.000117609725638346,-6.82064282830908e-05,-0.00254146984486958,-0.00275540534894425,3.19538535986652e-06,-2.33117605485944e-06,-0.00125541181280031,-0.00186503777406966,-4.69458785001819e-06,-0.00302161331664941,-0.00298417580888977,-0.00190474248670203,-0.00298417580888977,8.74057374149473e-05,-6.23673464499319e-05,-4.69458785001819e-06,4.49936032635989e-05,9.07436099559789e-05,1.71326198090682e-05,-0.000472702953110193,-0.00485387440308038,-0.000104111613923763,1.48907563408684e-05,-0.00290743788329628,-6.78656946906386e-06,-4.69458785001819e-06,-0.00230906718476831,4.49936032635989e-05,-0.00262012496619413,-6.23673464499319e-05,-0.00197061788915498,-0.00235320132893424,-0.00298417580888977,6.92440514917791e-05,-0.00194575952039866,-9.75810379699737e-05,-0.00338639990363543,-3.30213502897081e-05
"2:192121380:A:G",-6.98210695961876e-05,3.53708539631015e-05,-2.9115733268803e-05,0.0434007987701523,-0.00195901694661593,-6.10684584572141e-05,-4.75981272707315e-06,-0.000786304131611182,-3.61811317297622e-05,0,-0.00563753734213712,-0.00165266647121953,-1.26504072346378e-05,7.98270961999137e-05,-3.10912649359452e-05,3.24939056257634e-05,-3.93930293327571e-05,-0.00219602591330936,1.68485690217324e-05,-0.00164782144846054,-0.00642072874314259,2.48692693105568e-08,7.98270961999137e-05,5.50463292636749e-06,2.5249546020234e-05,-0.00165266647121953,-3.10912649359452e-05,-3.72380970485864e-05,-3.55577541277796e-06,-2.22995075365162e-05,2.40075632964576e-05,-0.00120277115958967,3.41659005593797e-05,-2.91418932123477e-05,6.98580913827129e-06,2.33753456129193e-05,-6.47237686433044e-05,2.5249546020234e-05,3.59619049392634e-05,7.15895612994899e-05,-0.00580597451342424,-0.00148689891269793,0.000601974998783561,-0.000142717132278314,4.38254658554627e-05,-2.32371161770217e-05,7.15895612994899e-05,2.33753456129193e-05,1.63949465203928e-06,-7.69652941379206e-07,-2.22995075365162e-05,2.8335662961787e-05,-1.5485391680059e-06,-8.00042847526328e-05,-1.26504072346378e-05,-0.0057807230731397,-1.26504072346378e-05,3.19134092405804e-05,-2.13733578782183e-05,-1.5485391680059e-06,1.61806301779421e-05,3.3067493097505e-05,6.24968793694336e-06,7.71315590775146e-06,-3.01398368982575e-05,-0.000944453486271257,5.50463292636749e-06,0.000105083373269643,-0.000203347235685492,-1.5485391680059e-06,3.53708539639896e-05,1.61806301779421e-05,-0.00535563574276043,-2.13733578782183e-05,3.98706449278308e-06,2.14321368208203e-05,-1.26504072346378e-05,2.56992843032933e-05,1.86344826387241e-05,-3.30891872497574e-05,-0.001303600433606,-6.91348226036226e-05
"2:192123076:A:G",-0.000943190285062734,-0.00389070865301022,0.000174528446168054,-0.00195901694661593,0.203273260683639,-0.000217186452029949,-8.06673994473428e-05,-0.0137057446739401,0.000405138482877376,0,-0.00141090675970013,-0.00813938706127715,0.000140609770566513,-0.00362385065060788,-0.00144943367885819,-0.00082102460788569,-0.00052690856780746,-0.00301401405454893,-0.000234323611770115,-0.00812536107166073,-0.00441281657415704,-0.000678905467796476,-0.00362385065060788,-0.00322384413634591,-0.000356281840645067,-0.00813938706127715,-0.00144943367885819,4.35470917681258e-05,-0.00560154170776173,0.000259355500182856,-0.00165424480934018,-0.00038061463232264,-0.000276772008966475,0.000355176920862732,-0.000107036249418435,-0.00328946395830432,-0.00290063021006581,-0.000356281840645067,-0.00669193363928144,-0.00260106923624903,-0.000787293569783465,-0.0131974987325942,-0.00195901694661593,-0.00194987676415526,-0.00546471634901025,-0.000801745671234144,-0.00260106923624903,-0.000347681745955342,-8.47198469768884e-05,4.89448392926306e-06,0.000259355500182856,-0.016456714939852,9.84416599703053e-06,-0.00179719216921548,-0.0022600156541408,-0.000392863369776286,-0.00104269800182077,-0.00197430312409708,-0.00178803510001746,9.84416599703053e-06,-0.000230760658134876,-0.000518548113774386,-0.000102690740474642,-0.000111333037124517,4.71522341598529e-05,-0.00896436890558849,-9.82956774944199e-05,-0.000986725164559665,-0.000322937747121443,9.84416599703053e-06,-0.00247334109236252,-0.00166775028239208,-0.0093530899287404,-0.00178803510001746,2.30815408510665e-05,-0.00131541492996412,-0.0022600156541408,-0.00468472042761192,-0.0158748400491762,-0.00141184963942109,-0.00588966966328197,-0.000169972944037866
"2:192126306:C:G",-0.000466528198844074,0.000198401250679936,-0.00018294387113027,-6.10684584572141e-05,-0.000217186452029949,0.0502662527870417,-3.33112868284857e-05,-0.000886051963870038,-0.000222192566185164,0,-0.00113267047640697,-0.00400900791257897,-7.87396582309086e-05,0.000463789191193165,-0.000187614579229667,0.000190344852894597,-0.000244015276786413,-0.00300323685426651,9.93516601095479e-05,-0.00389306136245882,-0.00050336472397472,-9.89420275843145e-06,0.000463789191193165,2.89314396315632e-05,0.00014906286362848,-0.00400900791257897,-0.000187614579229667,-0.00063963542441936,-0.0040437199780925,-0.000136210276020066,0.00014001423129173,-0.000111273365306808,0.000189280840527495,-0.000174372849508053,3.94225532192038e-05,0.000135407491159256,-0.000333192171391161,0.00014906286362848,-0.00130657072573648,0.00041602128502749,-0.00111037811362813,-0.00231012650987328,-6.10684584572141e-05,-0.000721385879027814,0.000247811490163841,-0.00014263794275049,0.00041602128502749,0.000135407491159256,1.54796138662761e-06,-0.00270403259769925,-0.000136210276020066,-0.00359602388641278,-1.08361134545376e-05,-0.000520163865371792,-7.87396582309086e-05,4.17457920613984e-05,-7.87396582309086e-05,0.000186042208697224,-0.000129861405860687,-1.08361134545376e-05,-0.00502428891819307,0.00019459584006043,-0.00306945184807894,4.45737953045366e-05,-0.000189966540661501,-0.00116235555527577,2.89314396315632e-05,0.000607004842320791,-2.1631878973416e-05,-1.08361134545376e-05,0.000198401250679048,9.45579469586733e-05,-0.00165670528893891,-0.000129861405860687,1.81810584498621e-05,0.000121245348937649,-0.000679134454137476,0.000139954246188623,-0.00370726656230946,-0.000201186849642099,-0.00179350864441119,-7.54348335236799e-05
"2:192127435:C:T",-3.8880585901957e-05,-0.00255690606266246,-0.00253294525418379,-4.75981272707315e-06,-8.06673994473428e-05,-3.33112868284857e-05,0.0467853865734282,-3.05676380190079e-05,-1.84134032457095e-05,0,2.62237490034067e-05,-0.00157425742355422,-5.9921786270678e-06,2.60540390453201e-05,-1.56226456891062e-05,1.32097817280297e-05,-0.00266339391808046,-0.00145690703709445,7.26548056384502e-06,-0.00158355229189766,-3.05676380190079e-05,9.64123127999983e-08,2.60540390453201e-05,2.50068447016361e-06,1.05502346174902e-05,-0.00157425742355422,-1.56226456891062e-05,-0.00160318388427516,-1.42242579226348e-06,-1.09041710407709e-05,1.00925400818852e-05,-9.04847668792286e-06,1.3878884913332e-05,-1.45732677303556e-05,-0.00188948398182731,9.85767509131819e-06,-0.00115347854023184,1.05502346174902e-05,-0.00266853501452236,2.44080303373195e-05,-4.01589050351703e-05,-0.00155090662643964,-4.75981272707315e-06,-0.00111975746792492,1.70661477980616e-05,-1.13886629806714e-05,2.44080303373195e-05,-0.000416861550848857,8.14335017196299e-07,-3.4571705587183e-07,-1.09041710407709e-05,1.18717299546489e-05,-6.97404381355682e-07,-0.00245502178173762,-0.0036769419697178,-0.002249201198401,-5.9921786270678e-06,1.3010740437025e-05,-1.04280976964688e-05,-6.97404381355682e-07,7.00144534171443e-06,1.34053876266194e-05,2.82050184186033e-06,3.44374315197626e-06,-0.00250835218895595,-1.78352130868475e-05,2.50068447016361e-06,2.94402155445184e-05,-0.00222645327311355,-6.97404381355682e-07,1.42800599531867e-05,7.00144534171443e-06,-0.00539195634316769,-1.04280976964688e-05,1.84400902725201e-06,-0.00170920761506732,-5.9921786270678e-06,1.0812314630293e-05,8.16372069589733e-06,-1.67093628782311e-05,-1.43840456638955e-05,-0.00211067979146229
"2:192127584:G:C",-0.000399411952027862,-0.00165915284951623,-0.000170484085840528,-0.000786304131611182,-0.0137057446739401,-0.000886051963870038,-3.05676380190079e-05,0.123033396807419,-0.000207743847725261,0,-0.00154915564321545,-0.0116715067889746,-7.30551624439357e-05,-0.00436698306267314,-0.000175337245400087,0.000175381710684874,-0.000228259142295073,-0.00261030105178328,9.18476711611049e-05,-0.0116523502406563,-0.000323585120336034,-8.39186716916629e-06,-0.00436698306267314,2.71230176362991e-05,-0.000876059734099321,-0.0131946831197469,-0.000175337245400087,-0.000214489389849248,-4.19829770708091e-05,-0.000910985352228444,0.000129351285817592,0.000632511357285814,0.000175479214898466,-0.000162959557431286,3.66904600364037e-05,0.000125206862087168,-0.000367070414799997,0.000137484510118746,-0.00319933083691915,-0.00194230239000426,-0.00152311873880784,-0.00866784877161964,-0.000786304131611182,-0.000820225737768077,0.000228678631708945,-0.00380885906143735,-0.00194230239000426,-0.00210567415600948,2.09217367608261e-06,-4.93375073418179e-06,-0.000910985352228444,0.000135937369655892,-9.93021713036057e-06,-9.4314717808075e-05,-7.30551624439357e-05,-0.00148129473014347,-0.00111750362228413,-0.00890249829898782,-0.000120990140627164,-9.93021713036057e-06,8.7510964625892e-05,0.000179176434499162,-0.0002199751471057,4.13836337411766e-05,-0.000177054060759296,0.00106454898976693,2.71230176362991e-05,-0.00142329934410412,-0.00151518146400598,-9.93021713036057e-06,-0.00181322762366332,-0.00216548664412741,-0.00616317328262994,-0.000120990140627164,1.73062910358013e-05,0.000112450253150875,-7.30551624439357e-05,0.000130232193241042,8.28995574355673e-05,-0.000628031795574024,-0.00258303053507714,-0.00144503724557499
"2:192129657:G:T",-0.00159508458429158,-0.00466113179415473,-0.00010744936196172,-3.61811317297622e-05,0.000405138482877376,-0.000222192566185164,-1.84134032457095e-05,-0.000207743847725261,0.0552247180726533,0,-0.000176250980898907,0.000505752916284408,-0.00130946833885925,-0.00221711556021109,-0.000112305507709465,-0.00395422088280561,-0.00014491017074203,0.000288508871091331,-0.000659594162479848,0.000484668775188268,-0.000207743847725261,-2.98577539847855e-06,-0.00221711556021109,1.82684941574252e-05,8.79637667710043e-05,0.000505752916284408,-0.000112305507709465,-0.000266670956500015,-0.000110981443028457,-8.07701239891045e-05,8.3188320966876e-05,-6.66157274000767e-05,-0.00216031658860238,-0.000104692214867974,2.3987339837106e-05,8.07540931146988e-05,-0.00067207427221927,-0.000623016919352182,-0.0020427362048947,-0.00229892477117843,-0.000115247732754398,0.00035362787789639,-3.61811317297622e-05,-0.000904874675073941,-3.25873473849825e-05,-8.44277462999088e-05,-0.00229892477117843,8.07540931146988e-05,-0.00258768570552181,-2.96995757498308e-06,-8.07701239891045e-05,-7.03884219257489e-05,-0.00190888268641665,-0.0015340780338855,-4.60825049426461e-05,-6.49552623608329e-05,-4.60825049426461e-05,0.000110178271540029,-7.71610477503515e-05,-0.00190888268641665,5.63136652900198e-05,-0.00694854198397188,2.11465575343794e-05,2.67915542666586e-05,-0.00135283463944358,-0.000128160037554892,-0.00196668003902278,-0.00173053682568991,-9.78972343919082e-05,-0.00190888268641665,-0.00237918865499509,5.63136652900198e-05,-0.00156630287855908,-7.71610477503515e-05,1.23975781338714e-05,7.32580583795439e-05,-0.000160242880546946,-4.05130987708446e-05,-8.52077967818943e-05,-0.00012012531393335,-0.000110560130281989,-0.00163745357633527
"2:192132174:A:G",0,0,0,0,0,0,0,0,0,0,0,0,0,0,0,0,0,0,0,0,0,0,0,0,0,0,0,0,0,0,0,0,0,0,0,0,0,0,0,0,0,0,0,0,0,0,0,0,0,0,0,0,0,0,0,0,0,0,0,0,0,0,0,0,0,0,0,0,0,0,0,0,0,0,0,0,0,0,0,0,0,0
"2:192133660:G:T",-0.00269272006818344,-0.000831578603726513,-0.0010180482374933,-0.00563753734213712,-0.00141090675970013,-0.00113267047640697,2.62237490034067e-05,-0.00154915564321545,-0.000176250980898907,0,0.110114133197222,0.000789464075878765,-9.38766773703748e-05,0.000261452896519465,-0.000228954213536525,0.000207552498813435,-0.000867282269728875,0.000313894551578819,-0.000106826495226642,0.000838629192660534,0.000155547378139609,-0.00961624296463182,0.000261452896519465,-0.00225547624557443,0.000164575540889444,0.00105783371693358,-0.000228954213536525,-0.00490089859208176,-0.00737932959873966,-0.00306676697829555,-0.00381118688462934,-0.000132471477717111,-0.000152549043231254,-0.000683441616424751,-0.00183487836869833,0.000149871694529402,-0.000203482455306769,-4.47034516373179e-05,-6.59845797530423e-05,-0.000137756007033474,-0.000707616613746964,-0.00142578433880169,-0.00563753734213712,-0.00033065912853214,7.94774235606255e-05,-0.000172761934386756,-0.000137756007033474,-0.000272668922913333,2.20177102239205e-06,-6.39731386353759e-06,-0.00306676697829555,-0.0092545654200622,8.67292005501952e-06,-0.000350977197485669,0.00016552239351153,-0.00183505961747699,-9.38766773703748e-05,0.000203076501632538,-0.000156233552645269,8.67292005501952e-06,-0.00278739766312874,0.000211955559864307,-0.00244871740213437,5.05465514333281e-05,-0.000518372750564211,-0.000265876841440083,3.23908720956112e-05,-0.00263674545049852,-0.000126318669332548,8.67292005501952e-06,8.08519142774244e-05,0.000105940850891884,-0.00399111206878855,-0.000156233552645269,-0.00438038139934882,-0.00157007846076418,-9.38766773703748e-05,5.39299731112663e-05,-0.0088998905929456,-0.00323748175225536,-0.0102525291903,-0.000278940199070377
"2:192135696:T:C",-0.0041230474478966,6.29764060842142e-05,-0.00320033266101261,-0.00165266647121953,-0.00813938706127715,-0.00400900791257897,-0.00157425742355422,-0.0116715067889746,0.000505752916284408,0,0.000789464075878765,0.164001534368828,-0.00150303654040407,0.000249832262930294,-0.000566094360507918,0.0001836102246493,-0.00231212976714268,-0.00247236554086561,0.000456792485477031,0.0041567534018867,-0.00021489746196357,-0.00176035390977125,0.000249832262930294,-0.00710739967892593,-0.000747099997061795,0.00251283822701165,-0.000566094360507918,-0.000426944047618782,-0.0085449709865375,-0.00110924370813237,-0.00195862295570848,-0.000426822103587021,-0.00117679600040077,-0.00189068275358117,0.000145578728410811,0.000155826517548086,0.000742838899403075,0.000572889555376044,-0.00682677970834078,0.000206573959007805,0.000788182786840341,-0.00391288916938537,-0.00165266647121953,0.000838912815044779,0.000526472700621117,0.000184905690860937,0.000206573959007805,-0.00013860656112552,-0.000126423009496612,-4.53665523911795e-05,-0.00110924370813237,-0.0081432512260502,-8.20115347099915e-05,-0.0181849225323512,-0.00149393741269854,-0.00110192483488758,-0.00280803337001512,-0.00288566329926354,-0.00398219387813459,-8.20115347099915e-05,0.000417674655903255,-0.0017818675813519,-0.00315922553293291,-0.00198764597287315,-0.00161383230309164,-0.0103746149794341,-0.000183599589637318,-0.00353990472524579,-0.0013139639226587,-8.20115347099915e-05,-0.00260024020259708,0.000417674655903255,-0.0055053453850813,-0.00398219387813459,-0.00197920340155111,-0.00305136290471042,-5.52752639002563e-05,-0.00190172590257198,-0.00730799420496542,-0.000605571011653261,-0.00641871332053512,-0.0011995151961095
"2:192139927:G:A",-9.05481323378865e-05,4.29191559518927e-05,-3.69823448300721e-05,-1.26504072346378e-05,0.000140609770566513,-7.87396582309086e-05,-5.9921786270678e-06,-7.30551624439357e-05,-0.00130946833885925,0,-9.38766773703748e-05,-0.00150303654040407,0.0502954899065475,9.40193851972637e-05,-3.94381423136636e-05,-0.0014747545670124,-5.02962648933902e-05,0.000101174627880063,2.07294228831145e-05,-0.00151448117377129,-7.30551624439357e-05,-0.00254782714025925,9.40193851972637e-05,6.78625804262367e-06,3.08989256456726e-05,-0.00150303654040407,-3.94381423136636e-05,-4.74673814014892e-05,-0.00563249873190053,-2.81597606308637e-05,2.93884296915792e-05,-2.3481808076653e-05,4.1471569040219e-05,-3.69042470067527e-05,8.63133472250865e-06,-0.00313847018526658,-8.3657623932254e-05,3.08989256456726e-05,4.36281852627118e-05,8.48258773551436e-05,-0.000121690208987779,-0.0010955911877728,-1.26504072346378e-05,-0.00092939478787013,5.28977062081992e-05,-2.93689086134918e-05,8.48258773551436e-05,2.86184255822164e-05,1.95340102671082e-06,-9.66290887305377e-07,-2.81597606308637e-05,-0.00306397259394942,-1.94521041141371e-06,-0.00294424243640368,-1.58984600471257e-05,-5.09475829302275e-05,-1.58984600471257e-05,3.88649278972863e-05,-2.6966789422822e-05,-1.94521041141371e-06,1.99084086967005e-05,4.02537818580129e-05,7.71484301065328e-06,9.53596467745399e-06,-3.83143424977916e-05,-4.47168036217249e-05,-0.0036096308063307,-0.00190066430728386,-0.00193823717004893,-1.94521041141371e-06,4.29191559527808e-05,1.99084086967005e-05,-0.00176915497753072,-2.6966789422822e-05,4.89185215091226e-06,-0.00502353004449763,-1.58984600471257e-05,3.13430161940076e-05,-0.0046603486123189,-4.20413848223333e-05,-0.00277106860849141,-0.00182965480402597
"2:192140012:T:A",-0.00188264370407687,-0.00768125264855701,-0.00246682337233217,7.98270961999137e-05,-0.00362385065060788,0.000463789191193165,2.60540390453201e-05,-0.00436698306267314,-0.00221711556021109,0,0.000261452896519465,0.000249832262930294,9.40193851972637e-05,0.0678889750329961,0.000240610185284318,-0.000289567932848733,-0.0022798777090145,-0.00295071749890319,-0.000144936938765383,0.000135594974050246,-0.00125513538841648,-2.24275829276976e-05,0.00315477673478703,-5.61675848391729e-05,-0.000219289732662276,0.000249832262930294,0.000240610185284318,-0.00159521749696356,-0.000728894152390858,0.000170368345321137,-0.00128383253927744,0.000149928957497991,-0.00748766258292211,-0.00615276778522489,-6.40947353938159e-05,-0.000209959173415264,-0.00218578002829339,-0.000219289732662276,-0.000345780755538705,0.00291940711327232,0.000236911498519454,-0.000499844098370783,7.98270961999137e-05,0.000412004306292069,-0.000768955788748471,0.000175621127969983,0.00291940711327232,-0.000209959173415264,-0.00661749085873797,4.22276069578231e-06,0.000170368345321137,-0.000246948272358161,8.49229564003906e-06,0.000225278995454659,9.40193851972637e-05,1.46609160980304e-05,9.40193851972637e-05,-0.000286843395866931,-0.00231680600245099,8.49229564003906e-06,-0.000141464833760985,-0.000292261618006329,-6.01534111099866e-05,-6.79922978816805e-05,-0.00247378448802404,0.000263386025577184,-0.00121104784726711,-0.00404878150694188,-1.81617388221866e-05,8.49229564003906e-06,-0.000964270685289037,-0.000141464833760985,-0.00352276142634222,-0.00231680600245099,-0.00125127545571058,-0.00105114211737067,9.40193851972637e-05,-0.00256401762259362,-0.000320209775473757,0.000251871215849242,-0.000322441917813165,5.8780411214876e-05
"2:192140293:T:C",-0.000215883360569435,-0.00367447336977822,-0.00400104451776251,-3.10912649359452e-05,-0.00144943367885819,-0.000187614579229667,-1.56226456891062e-05,-0.000175337245400087,-0.000112305507709465,0,-0.000228954213536525,-0.000566094360507918,-3.94381423136636e-05,0.000240610185284318,0.049586254736389,9.85035737901541e-05,-0.00415720583363299,-0.00176095045894353,5.12560000736073e-05,-0.000527519927966402,-0.000175337245400087,-0.00126590075432098,0.000240610185284318,1.60028430382653e-05,7.68151685335283e-05,-0.000566094360507918,0.00183648130068548,-0.000115744258395445,-1.64636700166199e-05,-6.90008915347207e-05,7.26791276983718e-05,-5.71441367247516e-05,-0.0015186211394429,-8.94192177183228e-05,2.08852489622657e-05,-0.00251865262768369,-0.000199416153116694,7.68151685335283e-05,0.000107365694892003,0.000215890502536453,-0.000291091991742931,-0.000348519710883899,-3.10912649359452e-05,-0.00044033986643921,-0.00295429216469412,0.000165755055318684,0.000215890502536453,7.05732136170312e-05,-0.00130615487172392,-2.5251342048449e-06,-6.90008915347207e-05,-0.000432952725708979,-5.0809618699077e-06,8.13316737868774e-05,-3.94381423136636e-05,-0.00304349371854151,-3.94381423136636e-05,9.65571743458682e-05,-6.59816364070309e-05,-5.0809618699077e-06,4.90443373193372e-05,0.000100426494248573,1.84589672036495e-05,2.32822276018396e-05,-0.00397937017960981,-0.000108910693413122,1.60028430382653e-05,-0.00724410342132131,-0.00136465601849522,-5.0809618699077e-06,0.000105365306465544,4.90443373193372e-05,-0.00200738071510553,-6.59816364070309e-05,1.09988435017527e-05,6.40982498536502e-05,-3.94381423136636e-05,-0.00316157292908592,-0.000443679988594958,-0.00010224956055005,-0.00110286983700636,-0.00127245913120522
"2:192140872:C:T",-0.00181730938152747,-0.00012655801514061,8.90860396047799e-05,3.24939056257634e-05,-0.00082102460788569,0.000190344852894597,1.32097817280297e-05,0.000175381710684874,-0.00395422088280561,0,0.000207552498813435,0.0001836102246493,-0.0014747545670124,-0.000289567932848733,9.85035737901541e-05,0.0423195527996407,0.000121142650534978,-0.000574078214594209,-5.67702356795152e-05,0.000172165591282081,0.000175381710684874,-4.95918893950176e-06,-0.000289567932848733,-2.00940815213713e-05,-8.56418820696092e-05,0.0001836102246493,9.85035737901541e-05,0.000115289923823703,-0.00173412397710848,7.04026132956059e-05,-8.22155134025948e-05,6.03616421086528e-05,-0.000684339082222429,9.31514437487735e-05,-2.42040329068161e-05,-8.04735325585781e-05,0.000200126674569034,-8.56418820696092e-05,-0.000128140281358213,-0.00025748677075299,0.000268921725847804,-0.000274877131053231,3.24939056257634e-05,-0.00312768499564609,-0.000157065528947342,7.2982642002728e-05,-0.00025748677075299,-8.04735325585781e-05,-9.40726982978646e-06,2.14169470780234e-06,7.04026132956059e-05,-0.00132433887707784,4.30683924879105e-06,-0.000947237228236197,3.95638309891311e-05,-4.54058163068538e-05,3.95638309891311e-05,-0.00639645940759248,6.78509587022091e-05,4.30683924879105e-06,-5.49170180601521e-05,0.00251936050199841,-2.21604360906014e-05,-2.62252455280887e-05,9.18786081784972e-05,-0.00391800873365344,-0.000814854577611435,-0.00132148041768598,-4.06827294519019e-07,4.30683924879105e-06,-0.00536514007646804,-5.49170180601521e-05,-0.00487855664116044,6.78509587022091e-05,-1.58915628798439e-05,-0.00056831407043223,3.95638309891311e-05,-9.32423500072943e-05,-0.00140169466096207,0.000103974665134565,-0.00431171170800315,2.97881763238195e-05
"2:192143864:A:G",-0.00387632957526041,0.000128714487848569,-0.00109929187856483,-3.93930293327571e-05,-0.00052690856780746,-0.000244015276786413,-0.00266339391808046,-0.000228259142295073,-0.00014491017074203,0,-0.000867282269728875,-0.00231212976714268,-5.02962648933902e-05,-0.0022798777090145,-0.00415720583363299,0.000121142650534978,0.105138284041566,-0.00482416960332976,6.36733957826152e-05,-0.0039720974932238,-0.00112904404373992,-0.00592931007952302,-0.0022798777090145,1.96647252144189e-05,9.49671487555648e-05,-0.00414526361881906,-0.00415720583363299,-0.00130179246403639,-2.35530908048176e-05,-0.00117034025460327,8.97797237815467e-05,-7.25800223371209e-05,-0.00199840997908041,-0.00036900127216466,-0.00362979372626793,8.71338227508289e-05,-0.000260251914546039,9.49671487555648e-05,-0.00188015526059182,-0.00236287265786661,-0.000211830489827314,-0.00198599719954773,-3.93930293327571e-05,-0.000596723442003011,0.000159328022933281,-9.22603380750786e-05,-0.00236287265786661,-0.00263964167633191,3.25064329320668e-06,-3.25633542619386e-06,-0.00117034025460327,-0.00196687211061253,-6.55641697200338e-06,-0.0034644421643657,-0.0031221310126508,-0.00178922986821473,-0.0031221310126508,0.000118721727436544,-8.4225805435878e-05,-6.55641697200338e-06,6.08740299066213e-05,0.000123531629986573,2.28148322607424e-05,-0.000622122990974638,-0.00351029788802393,-0.00014035329579265,1.96647252144189e-05,-0.00325469959078095,-1.07335213757054e-05,-6.55641697200338e-06,-0.00216752705136258,6.08740299066213e-05,-0.00341404004534818,-8.4225805435878e-05,-0.00185975431768792,-0.00222500944301007,-0.0031221310126508,9.26063163593227e-05,-0.00205736761496134,-0.000131431521330327,-0.00318825772983011,-4.60121989975804e-05
"2:192145021:G:C",0.000105137886299289,-8.87138191441039e-05,-0.00234742858904191,-0.00219602591330936,-0.00301401405454893,-0.00300323685426651,-0.00145690703709445,-0.00261030105178328,0.000288508871091331,0,0.000313894551578819,-0.00247236554086561,0.000101174627880063,-0.00295071749890319,-0.00176095045894353,-0.000574078214594209,-0.00482416960332976,0.114557784467511,-0.000158832082374438,-0.00274143009029482,0.000450648781709972,-0.00443088948165027,-0.00295071749890319,-0.00338478106214435,-0.000241004995039873,-0.00247236554086561,-0.00176095045894353,-0.000251586113878766,-0.000499541936095582,0.000183370737953936,-0.00136610067120824,-0.000653612831469808,-0.000161491387429713,0.000247164525400301,-7.04379411393674e-05,-0.00293044239406548,-0.00142741010078762,-0.000241004995039873,-0.00122573129904158,-0.00204091732847989,0.000307821820239695,0.000498888356775584,-0.00219602591330936,-0.000823382102701942,-0.00287822529759563,-0.00221614073744991,-0.00204091732847989,-0.000231435875199359,-3.04148350531719e-05,4.40899106024517e-06,0.000183370737953936,-0.00858074195424319,8.86670644995036e-06,-0.00535033385063599,0.000101174627880063,-0.00169698780710803,0.000101174627880063,0.000599845693682433,0.00017794392544257,8.86670644995036e-06,-0.000155238127060642,-0.000271924691617187,-6.63353839689407e-05,-7.44949436146669e-05,-0.00514984607087055,-0.00228502298990829,-6.21865022667478e-05,-0.000137764406619389,-0.000468432089372861,8.86670644995036e-06,-0.00210235432447359,-0.000508848259656247,-0.00430261211793415,0.00017794392544257,-0.00318645029888476,-0.000221533371838945,0.000101174627880063,-0.00242191056859831,-0.00823242231748722,-0.00172536264467205,-0.00444705392491151,-0.000355476322802417
"2:192145857:T:C",0.000112172632078078,-6.33621268351092e-05,4.69685936499431e-05,1.68485690217324e-05,-0.000234323611770115,9.93516601095479e-05,7.26548056384502e-06,9.18476711611049e-05,-0.000659594162479848,0,-0.000106826495226642,0.000456792485477031,2.07294228831145e-05,-0.000144936938765383,5.12560000736073e-05,-5.67702356795152e-05,6.36733957826152e-05,-0.000158832082374438,-0.00326835242403511,0.000424496203435432,9.18476711611049e-05,-1.61238238405303e-06,-0.000144936938765383,-9.9653490570617e-06,-4.3707304307361e-05,0.000456792485477031,5.12560000736073e-05,6.04611679557721e-05,1.96261018015065e-06,3.67152184468367e-05,-4.17999831130444e-05,3.1210418949712e-05,-6.1537260801714e-05,4.83234858474901e-05,-1.22323874816033e-05,-4.08301794738719e-05,0.000104720672858605,0.00364785420513503,-6.42582415091297e-05,-0.000129175723696306,-0.000223166574011557,0.000474162354735519,1.68485690217324e-05,-0.00120221122977426,-7.86526296181478e-05,3.81303109788789e-05,-0.000129175723696306,-4.08301794738719e-05,-4.06803792074584e-06,1.17754508988099e-06,3.67152184468367e-05,-5.27453633880626e-05,2.36814160015086e-06,0.000122819421438436,2.07294228831145e-05,0.000102070172077084,2.07294228831145e-05,-5.58811676780735e-05,3.53159438661876e-05,2.36814160015086e-06,-2.79920740915429e-05,-5.76493413735335e-05,-1.110521117198e-05,-1.33470886165554e-05,4.85023244101157e-05,5.7322506823887e-05,-9.9653490570617e-06,-0.00019511973656261,5.62525519205437e-05,2.36814160015086e-06,0.000373068402097942,-2.79920740915429e-05,-5.0639032407318e-06,3.53159438661876e-05,-7.64670092756603e-06,-3.78539724747995e-05,2.07294228831145e-05,-4.64030639681923e-05,-3.57135747606208e-05,5.42549132545034e-05,4.54497086019856e-05,1.63921932525568e-05
"2:192153312:A:G",-0.00422686975513642,6.96343807589095e-05,-0.00507375700171453,-0.00164782144846054,-0.00812536107166073,-0.00389306136245882,-0.00158355229189766,-0.0116523502406563,0.000484668775188268,0,0.000838629192660534,0.0041567534018867,-0.00151448117377129,0.000135594974050246,-0.000527519927966402,0.000172165591282081,-0.0039720974932238,-0.00274143009029482,0.000424496203435432,0.162451262653665,-0.000187869410054997,-0.000431477645301825,0.000135594974050246,-0.00705380163365366,-0.000714544495455272,0.0041567534018867,-0.000527519927966402,-0.000531961948111448,-0.00836140491727777,-0.00105564566286098,-0.00196529225848963,-0.000405782133076293,-0.00125123885965994,-0.00194520144350552,0.000138909425629663,0.000115896836382134,0.000644694975998839,0.000540593273334444,-0.00658797543338707,0.00010633096975754,0.000815989926060467,-0.00291768228801814,-0.00164782144846054,0.000665384347449116,0.000474429850690683,0.000170074126021547,0.00010633096975754,-0.000132074122477732,-0.000112708997886291,-4.05215296312988e-05,-0.00105564566286098,-0.00801725366959039,-7.20351240932615e-05,-0.0177896614129529,-0.00153485908330087,-0.000382231579693304,-0.00272452932285816,-0.0029592553090767,-0.00404822689359907,-7.20351240932615e-05,0.000389844543803974,-0.00179331221471823,-0.00314554457954586,-0.00195857877250294,-0.00310657044098983,-0.0103833939488069,-0.000195044223004537,-0.00347557764336592,-0.00135215220486984,-7.20351240932615e-05,-0.00270004723769768,0.000389844543803974,-0.00519253420987198,-0.00404822689359907,-0.00194836873525439,-0.0030372080705523,-5.48002733919972e-05,-0.00191413589447142,-0.00718199664850472,-0.000598393451934243,-0.00472110368152201,-0.00122029389422185
"2:192154412:A:G",-0.000885567926644626,0.000183614457070824,-0.00117986240388657,-0.00642072874314259,-0.00441281657415704,-0.00050336472397472,-3.05676380190079e-05,-0.000323585120336034,-0.000207743847725261,0,0.000155547378139609,-0.00021489746196357,-7.30551624439357e-05,-0.00125513538841648,-0.000175337245400087,0.000175381710684874,-0.00112904404373992,0.000450648781709972,9.18476711611049e-05,-0.000187869410054997,0.0606757652917946,-8.39186716916629e-06,-0.00125513538841648,-0.00173911707695673,0.000137484510118746,-0.000214897461964902,-0.000175337245400087,-0.000214489389849248,-0.00317758047871131,-0.000910985352228444,0.000129351285817592,-0.000103728561836824,0.000175479214898466,-0.000162959557431286,3.66904600364037e-05,0.000125206862087168,-0.000753814865930735,0.000137484510118746,-0.00228100761335082,-0.000585009064628217,0.000198747081901374,-0.000499985736788222,-0.00642072874314259,-0.0015431152952754,0.000228678631708945,-0.000132875982119529,-0.000585009064628217,0.000125206862087168,2.09217367608261e-06,-4.93375073418179e-06,-0.000910985352228444,-0.00368191968552267,-9.93021713036057e-06,-0.000656488783097764,-7.30551624439357e-05,4.04014262107566e-05,-7.30551624439357e-05,0.000171538633899182,-0.000120990140627164,-9.93021713036057e-06,8.7510964625892e-05,0.000179176434499162,3.19373051151928e-05,4.13836337411766e-05,-0.00119818873132349,-0.000201088723556175,2.71230176362991e-05,-0.00183575988953066,-0.00283222206313205,-9.93021713036057e-06,-0.00224760227674459,8.7510964625892e-05,-0.000627118884292344,-0.000120990140627164,-0.00284020295800413,0.000112450253150875,-7.30551624439357e-05,-0.00156627611816607,-0.00359042901593298,-0.000188042605076433,-0.00017897944146128,-0.00299334038200261
"2:192160970:G:A",-1.31432812660037e-05,-5.88572655679798e-06,-0.00629333277385147,2.48692693105568e-08,-0.000678905467796476,-9.89420275843145e-06,9.64123127999983e-08,-8.39186716916629e-06,-2.98577539847855e-06,0,-0.00961624296463182,-0.00176035390977125,-0.00254782714025925,-2.24275829276976e-05,-0.00126590075432098,-4.95918893950176e-06,-0.00592931007952302,-0.00443088948165027,-1.61238238405303e-06,-0.000431477645301825,-8.39186716916629e-06,0.0861907393685026,-2.24275829276976e-05,-3.1693946045408e-07,-3.17500621971334e-06,-0.000473969169316746,-0.00126590075432098,-3.19485179556267e-06,-2.09454297133149e-05,-8.42382519294915e-07,-2.92579029448348e-06,-4.89764192757036e-07,-5.55802382962156e-06,-1.76628721604288e-06,-4.31506499865009e-07,-2.80275740305314e-06,-1.11971751568518e-05,-3.17500621971334e-06,-0.00276151915147427,-1.92546187314235e-05,-0.0102603176511851,-0.000600996117620323,2.48692693105568e-08,-5.7173924858489e-05,-0.0027073791358907,-0.00164874790836844,-1.92546187314235e-05,-2.80275740305314e-06,-8.3784080118221e-08,2.53086493984256e-08,-8.42382519294915e-07,-9.66203265040377e-05,-0.00246230428054783,-0.00149607357393844,-7.32035267958508e-08,-0.00425016419127644,-7.32035267958508e-08,-4.81265688989652e-06,-0.00148571128584152,-0.00246230428054783,-1.51508570667147e-06,-5.10611826776142e-06,-3.72818695026922e-07,-4.92893790671189e-07,-0.00391188269318654,-2.7859691229537e-06,-3.1693946045408e-07,-0.000305291691119258,-0.00183032402599625,-0.00246230428054783,-0.00145324810440606,-1.51508570667147e-06,-0.00217423492103563,-0.00148571128584152,-2.14063547332444e-07,-2.4407441747698e-06,-7.32035267958508e-08,-0.00250110234657974,-0.00254630191974847,-2.41302074943661e-06,-0.000374113536021348,-0.00194159050854825
"2:192161647:A:T",-0.00188264370407687,-0.00768125264855701,-0.00246682337233217,7.98270961999137e-05,-0.00362385065060788,0.000463789191193165,2.60540390453201e-05,-0.00436698306267314,-0.00221711556021109,0,0.000261452896519465,0.000249832262930294,9.40193851972637e-05,0.00315477673478703,0.000240610185284318,-0.000289567932848733,-0.0022798777090145,-0.00295071749890319,-0.000144936938765383,0.000135594974050246,-0.00125513538841648,-2.24275829276976e-05,0.0678889750329961,-5.61675848391729e-05,-0.000219289732662276,0.000249832262930294,0.000240610185284318,-0.00159521749696356,-0.000728894152390858,0.000170368345321137,-0.00128383253927744,0.000149928957497991,-0.00748766258292211,-0.00615276778522489,-6.40947353938159e-05,-0.000209959173415264,-0.00218578002829339,-0.000219289732662276,-0.000345780755538705,0.00291940711327232,0.000236911498519454,-0.000499844098370783,7.98270961999137e-05,0.000412004306292069,-0.000768955788748471,0.000175621127969983,0.00291940711327232,-0.000209959173415264,-0.00661749085873797,4.22276069578231e-06,0.000170368345321137,-0.000246948272358161,8.49229564003906e-06,0.000225278995454659,9.40193851972637e-05,1.46609160980304e-05,9.40193851972637e-05,-0.000286843395866931,-0.00231680600245099,8.49229564003906e-06,-0.000141464833760985,-0.000292261618006329,-6.01534111099866e-05,-6.79922978816805e-05,-0.00247378448802404,0.000263386025577184,-0.00121104784726711,-0.00404878150694188,-1.81617388221866e-05,8.49229564003906e-06,-0.000964270685289037,-0.000141464833760985,-0.00352276142634222,-0.00231680600245099,-0.00125127545571058,-0.00105114211737067,9.40193851972637e-05,-0.00256401762259362,-0.000320209775473757,0.000251871215849242,-0.000322441917813165,5.8780411214876e-05
"2:192162118:T:G",-0.00293360468010384,-2.23771969949382e-05,1.48907563408684e-05,5.50463292636749e-06,-0.00322384413634591,2.89314396315632e-05,2.50068447016361e-06,2.71230176362991e-05,1.82684941574252e-05,0,-0.00225547624557443,-0.00710739967892593,6.78625804262367e-06,-5.61675848391729e-05,1.60028430382653e-05,-2.00940815213713e-05,1.96647252144189e-05,-0.00338478106214435,-9.9653490570617e-06,-0.00705380163365366,-0.00173911707695673,-3.1693946045408e-07,-5.61675848391729e-05,0.0824922328375113,-1.52710110139509e-05,-0.00710739967892593,1.60028430382653e-05,1.87308105594752e-05,-0.00379989786569457,1.17196056717006e-05,-1.45320244060443e-05,9.97833832716566e-06,-2.1632672864591e-05,1.51177623033405e-05,-4.07845553240804e-06,-1.41574725454063e-05,-0.0032088550221463,-1.52710110139509e-05,-2.27438431448235e-05,-4.92825927116414e-05,-0.00210856221276856,-0.00760395417887416,5.50463292636749e-06,-0.00315964610029429,-0.00142930473330694,1.21628615339375e-05,-4.92825927116414e-05,-1.41574725454063e-05,-1.17794829890272e-06,4.084350075928e-07,1.17196056717006e-05,-0.00330230063939219,8.20164051340555e-07,-0.0110891848718584,6.78625804262367e-06,-6.78404464071747e-06,6.78625804262367e-06,-1.97378469808385e-05,1.12795477162919e-05,8.20164051340555e-07,-9.58169582432333e-06,-2.04469865048296e-05,-3.67455191074839e-06,-4.47897512501072e-06,1.53569914855822e-05,1.78092567386656e-05,-0.00173188966279714,-0.0032143322620648,5.59001754218968e-07,8.20164051340555e-07,-2.23771969940501e-05,-9.58169582432333e-06,-0.000328565155347071,1.12795477162919e-05,-0.000167441020836101,-0.00144056992410668,6.78625804262367e-06,-0.00156946302264771,-0.00340673599052099,1.6899969423001e-05,1.46353414987033e-05,5.57617596896876e-06
"2:192162303:G:A",0.000167890648858027,-9.62872741228082e-05,6.98722275505048e-05,2.5249546020234e-05,-0.000356281840645067,0.00014906286362848,1.05502346174902e-05,-0.000876059734099321,8.79637667710043e-05,0,0.000164575540889444,-0.000747099997061795,3.08989256456726e-05,-0.000219289732662276,7.68151685335283e-05,-8.56418820696092e-05,9.49671487555648e-05,-0.000241004995039873,-4.3707304307361e-05,-0.000714544495455272,0.000137484510118746,-3.17500621971334e-06,-0.000219289732662276,-1.52710110139509e-05,0.00640352525653576,-0.000747099997061795,7.68151685335283e-05,-0.000558344363946084,1.01319290912727e-06,5.49121539910047e-05,-6.30914406318794e-05,4.68814428824516e-05,-9.36914937659239e-05,7.25288580865069e-05,-1.85535924321911e-05,-6.16974604792375e-05,0.000156946960780502,-6.58329044975758e-05,-9.7561905414878e-05,-0.000195380084095476,0.000213116552294501,-0.000579574024657248,2.5249546020234e-05,0.000331917640527202,-0.000119404145739743,5.69766840827768e-05,-0.000195380084095476,0.00111008607499041,-6.73126537531488e-06,1.70982427860622e-06,5.49121539910047e-05,-8.11836665626231e-05,3.43863645113629e-06,-0.000918540505538523,3.08989256456726e-05,-3.36051842468876e-05,3.08989256456726e-05,0.000720358850918146,5.28707469422685e-05,3.43863645113629e-06,-4.22266854833708e-05,-8.68994249207944e-05,-0.00156755103680428,-2.01675825648451e-05,7.21102100342819e-05,-0.000705093628353026,-1.52710110139509e-05,-0.000295802223617692,4.65747408640027e-07,3.43863645113629e-06,-9.62872741219201e-05,-4.22266854833708e-05,-5.72644798486621e-05,5.28707469422685e-05,-1.19135520062486e-05,-5.74193180469251e-05,3.08989256456726e-05,-7.08098025041792e-05,-5.55126296157837e-05,8.11987260211922e-05,-0.000150844478689294,2.38051311249876e-05
"2:192166747:T:C",-0.0041230474478966,6.29764060842142e-05,-0.0052673718229963,-0.00165266647121953,-0.00813938706127715,-0.00400900791257897,-0.00157425742355422,-0.0131946831197469,0.000505752916284408,0,0.00105783371693358,0.00251283822701165,-0.00150303654040407,0.000249832262930294,-0.000566094360507918,0.0001836102246493,-0.00414526361881906,-0.00247236554086561,0.000456792485477031,0.0041567534018867,-0.000214897461964902,-0.000473969169316746,0.000249832262930294,-0.00710739967892593,-0.000747099997061795,0.166137910774288,-0.000566094360507918,-0.000426944047618782,-0.0085449709865375,-0.00110924370813237,-0.00195862295570848,-0.000426822103587021,-0.00117679600040077,-0.00189068275358117,0.000145578728410811,0.000155826517548086,0.000742838899403075,0.000572889555376044,-0.00682677970834078,0.000206573959007805,0.000945569504295918,-0.00391288916938537,-0.00165266647121953,0.000838912815044779,0.000526472700621117,0.000184905690860937,0.000206573959007805,-0.00013860656112552,-0.000126423009496612,-4.53665523911795e-05,-0.00110924370813237,-0.0081432512260502,-8.20115347099915e-05,-0.0171116031911853,-0.00149393741269854,-0.000397730126719509,-0.00280803337001512,-0.00288566329926354,-0.00398219387813459,-8.20115347099915e-05,0.000417674655903255,-0.0017818675813519,-0.00315922553293291,-0.00198764597287315,-0.0032634717381157,-0.0103746149794341,-0.000183599589637318,-0.00353990472524579,-0.0013139639226587,-8.20115347099915e-05,-0.00260024020259708,0.000417674655903255,-0.00529017787353991,-0.00398219387813459,-0.00197920340155111,-0.00305136290471042,-5.52752639002563e-05,-0.00190172590257198,-0.00730799420496542,-0.00107382477151585,-0.00471866984651514,-0.0011995151961095
"2:192169095:G:A",-0.000215883360569435,-0.00367447336977822,-0.00400104451776251,-3.10912649359452e-05,-0.00144943367885819,-0.000187614579229667,-1.56226456891062e-05,-0.000175337245400087,-0.000112305507709465,0,-0.000228954213536525,-0.000566094360507918,-3.94381423136636e-05,0.000240610185284318,0.00183648130068548,9.85035737901541e-05,-0.00415720583363299,-0.00176095045894353,5.12560000736073e-05,-0.000527519927966402,-0.000175337245400087,-0.00126590075432098,0.000240610185284318,1.60028430382653e-05,7.68151685335283e-05,-0.000566094360507918,0.049586254736389,-0.000115744258395445,-1.64636700166199e-05,-6.90008915347207e-05,7.26791276983718e-05,-5.71441367247516e-05,-0.0015186211394429,-8.94192177183228e-05,2.08852489622657e-05,-0.00251865262768369,-0.000199416153116694,7.68151685335283e-05,0.000107365694892003,0.000215890502536453,-0.000291091991742931,-0.000348519710883899,-3.10912649359452e-05,-0.00044033986643921,-0.00295429216469412,0.000165755055318684,0.000215890502536453,7.05732136170312e-05,-0.00130615487172392,-2.5251342048449e-06,-6.90008915347207e-05,-0.000432952725708979,-5.0809618699077e-06,8.13316737868774e-05,-3.94381423136636e-05,-0.00304349371854151,-3.94381423136636e-05,9.65571743458682e-05,-6.59816364070309e-05,-5.0809618699077e-06,4.90443373193372e-05,0.000100426494248573,1.84589672036495e-05,2.32822276018396e-05,-0.00397937017960981,-0.000108910693413122,1.60028430382653e-05,-0.00724410342132131,-0.00136465601849522,-5.0809618699077e-06,0.000105365306465544,4.90443373193372e-05,-0.00200738071510553,-6.59816364070309e-05,1.09988435017527e-05,6.40982498536502e-05,-3.94381423136636e-05,-0.00316157292908592,-0.000443679988594958,-0.00010224956055005,-0.00110286983700636,-0.00127245913120522
"2:192171317:G:A",-0.00394878707088164,0.000122701575244299,-0.00137156005414862,-3.72380970485864e-05,4.35470917681258e-05,-0.00063963542441936,-0.00160318388427516,-0.000214489389849248,-0.000266670956500015,0,-0.00490089859208176,-0.000426944047618782,-4.74673814014892e-05,-0.00159521749696356,-0.000115744258395445,0.000115289923823703,-0.00130179246403639,-0.000251586113878766,6.04611679557721e-05,-0.000531961948111448,-0.000214489389849248,-3.19485179556267e-06,-0.00159521749696356,1.87308105594752e-05,-0.000558344363946084,-0.000426944047618782,-0.000115744258395445,0.0558019732061115,-2.16010952387435e-05,-0.00356431312601124,8.53608332462841e-05,-6.85795205583872e-05,0.000117883551536302,-0.000107861315452595,2.46261213581178e-05,8.28573309918923e-05,-0.00420000578387381,9.02711301611347e-05,0.000125060886114525,-0.00160584055153468,-0.00455364757629795,-0.000689387808146869,-3.72380970485864e-05,-0.00356898877987799,-1.37586778947707e-05,-8.70029968957908e-05,-0.00160584055153468,-0.00178282047945455,3.28445369746078e-06,-3.0637157522051e-06,-0.00356431312601124,9.44160803983962e-05,-6.16767905725624e-06,-0.000136375299454983,-0.00134228272294301,3.14298056087736e-05,-4.74673814014892e-05,0.000112994155052171,-7.94850425593907e-05,-6.16767905725624e-06,5.78166644444877e-05,0.000117556020425624,-0.000115333302871612,2.75162103093862e-05,-0.00138761698375678,-0.000132168633624197,1.87308105594752e-05,-0.00186969719210417,-9.85680035903158e-06,-6.16767905725624e-06,-7.72231813810365e-05,5.78166644444877e-05,-0.00128618394641045,-7.94850425593907e-05,1.26768821049339e-05,-0.00218076155567193,-4.74673814014892e-05,-0.00185958469043879,5.98255243486889e-05,-0.000814554500796483,-0.000114196555036195,-4.32088605597514e-05
"2:192171646:A:G",-0.00649108056563641,-0.0029566208400631,-1.48919463001107e-05,-3.55577541277796e-06,-0.00560154170776173,-0.0040437199780925,-1.42242579226348e-06,-4.19829770708091e-05,-0.000110981443028457,0,-0.00737932959873966,-0.0085449709865375,-0.00563249873190053,-0.000728894152390858,-1.64636700166199e-05,-0.00173412397710848,-2.35530908048176e-05,-0.000499541936095582,1.96261018015065e-06,-0.00836140491727777,-0.00317758047871131,-2.09454297133149e-05,-0.000728894152390858,-0.00379989786569457,1.01319290912727e-06,-0.0085449709865375,-1.64636700166199e-05,-2.16010952387435e-05,0.159867151623193,-0.00617545952461374,0.000127540807880244,-7.94570155093766e-06,-0.000186749509775375,-1.49672395242106e-05,1.43659324258749e-06,-0.00361143769959682,-0.00131418589833743,1.01319290912727e-06,-0.00284373669955507,-0.000698878583180296,-0.00666532146889232,-0.00646207334655191,-3.55577541277796e-06,-0.000220166284587542,-0.0013663257416443,-0.00257463516617396,-0.000698878583180296,1.32298707455902e-06,-0.00177801271310774,-2.04072093445973e-07,-0.00617545952461374,-0.00252565228039536,-4.20763819342085e-07,-0.00480349310138362,-4.71156203918355e-06,-0.00229491447383623,-0.00192804331131047,-0.000949481081341297,-0.0030300609137548,-4.20763819342085e-07,1.98152222807835e-06,-0.000451017034105661,-0.00164614818379327,1.53185350626472e-06,-0.00191673156323091,-0.00257397481027333,-0.00427212318734327,8.4874563928139e-05,-0.00271260864937961,-4.20763819342085e-07,-0.00127292905719045,-0.000850886725405786,-0.00618996919440917,-0.0030300609137548,-0.00377832231506314,-0.000605272161660508,-4.71156203918355e-06,-7.00370303885478e-05,-0.00129669723594983,-0.000428979951433206,-0.00172232204487166,-0.00243449238051507
"2:192173215:T:C",-0.000156642998715206,7.5843652354024e-05,-0.00125541181280031,-2.22995075365162e-05,0.000259355500182856,-0.000136210276020066,-1.09041710407709e-05,-0.000910985352228444,-8.07701239891045e-05,0,-0.00306676697829555,-0.00110924370813237,-2.81597606308637e-05,0.000170368345321137,-6.90008915347207e-05,7.04026132956059e-05,-0.00117034025460327,0.000183370737953936,3.67152184468367e-05,-0.00105564566286098,-0.000910985352228444,-8.42382519294915e-07,0.000170368345321137,1.17196056717006e-05,5.49121539910047e-05,-0.00110924370813237,-6.90008915347207e-05,-0.00356431312601124,-0.00617545952461374,0.0439630609480073,5.20824187510982e-05,-4.11583411619176e-05,7.3085476913981e-05,-0.000200203984556779,1.5106836697143e-05,5.06409314580125e-05,-0.000144731901174922,5.49121539910047e-05,7.71955584601969e-05,0.000153158351804628,-0.00137119407265018,-0.00109784539368363,-2.22995075365162e-05,-0.000324393501303533,-0.00198174510040072,-5.16904851250999e-05,0.000153158351804628,5.06409314580125e-05,2.86402747384784e-06,-1.76080958969038e-06,0.00084149699720637,-0.00558851975959929,-3.54367719257453e-06,-0.00044761523663972,-2.81597606308637e-05,2.12117853637395e-05,-2.81597606308637e-05,6.90801377034589e-05,-4.73967683420895e-05,-3.54367719257453e-06,3.51919562984193e-05,7.17087378765413e-05,-0.00270764970826409,1.67688787575671e-05,-6.76360618188099e-05,-0.00104285225144718,1.17196056717006e-05,0.000222345183471084,-4.64823619594767e-06,-3.54367719257453e-06,7.58436523531358e-05,3.51919562984193e-05,-0.000159312036632997,-4.73967683420895e-05,-0.00174454453478745,4.62059283989902e-05,-2.81597606308637e-05,-0.00182056115449569,-0.00571995158724192,-7.36164048822374e-05,-0.00139492917843143,-2.47373975552634e-05
"2:192175698:T:C",0.000157492519506697,-9.24668729629374e-05,6.6241521603061e-05,2.40075632964576e-05,-0.00165424480934018,0.00014001423129173,1.00925400818852e-05,0.000129351285817592,8.3188320966876e-05,0,-0.00381118688462934,-0.00195862295570848,2.93884296915792e-05,-0.00128383253927744,7.26791276983718e-05,-8.22155134025948e-05,8.97797237815467e-05,-0.00136610067120824,-4.17999831130444e-05,-0.00196529225848963,0.000129351285817592,-2.92579029448348e-06,-0.00128383253927744,-1.45320244060443e-05,-6.30914406318794e-05,-0.00195862295570848,7.26791276983718e-05,8.53608332462841e-05,0.000127540807880244,5.20824187510982e-05,0.0382916806054627,4.44670642600897e-05,-8.99359388366605e-05,6.86333032513531e-05,-1.76853896363127e-05,-5.90845986927491e-05,0.000147340645270333,-6.30914406318794e-05,-9.37099701889821e-05,-0.00123482344050796,-0.00362676600745893,-0.00226266801145147,2.40075632964576e-05,0.000306093417373532,-0.000114933337759915,5.40385236051932e-05,-0.00123482344050796,-5.90845986927491e-05,-6.3358266402247e-06,1.63678255571398e-06,5.20824187510982e-05,0.000448022951370142,3.29129625331603e-06,0.000170529286954491,2.93884296915792e-05,-3.19279664031669e-05,2.93884296915792e-05,-0.000304332215787184,5.01475600342971e-05,3.29129625331603e-06,-4.03709420071507e-05,-8.34389012682735e-05,-1.61173503041567e-05,-1.92364231388353e-05,6.83566212362763e-05,-0.001738490138953,-1.45320244060443e-05,-0.000289460713823075,5.63337471781722e-07,3.29129625331603e-06,-0.00157617403934562,-0.000166098550730354,-0.0054868667734258,5.01475600342971e-05,-1.13083587693907e-05,-5.49419505544435e-05,2.93884296915792e-05,-0.00459905938505578,0.000377574390576285,7.68136754674131e-05,-0.0027481082732459,2.27486247386111e-05
"2:192175912:T:C",-0.000127250406293911,6.52658935074157e-05,-5.39126071998908e-05,-0.00120277115958967,-0.00038061463232264,-0.000111273365306808,-9.04847668792286e-06,0.000632511357285814,-6.66157274000767e-05,0,-0.000132471477717111,-0.000426822103587021,-2.3481808076653e-05,0.000149928957497991,-5.71441367247516e-05,6.03616421086528e-05,-7.25800223371209e-05,-0.000653612831469808,3.1210418949712e-05,-0.000405782133076293,-0.000103728561836824,-4.89764192757036e-07,0.000149928957497991,9.97833832716566e-06,4.68814428824516e-05,-0.000426822103587021,-5.71441367247516e-05,-6.85795205583872e-05,-7.94570155093766e-06,-4.11583411619176e-05,4.44670642600897e-05,0.00505162735499276,6.28928609822665e-05,-5.35100492289331e-05,1.28133107599737e-05,4.32387167110804e-05,-0.000117953966471518,4.68814428824516e-05,6.64305286157685e-05,0.000134164466910391,-0.000168616473709804,-0.000269310582026172,-0.00120277115958967,-0.000255413571829344,8.11497094348468e-05,-4.29154458361225e-05,0.000134164466910391,4.32387167110804e-05,2.59140218883402e-06,-1.46471590767305e-06,-4.11583411619176e-05,5.14346227271645e-05,-2.94637584907775e-06,-0.000147180928700585,-2.3481808076653e-05,-0.000435984504069786,-2.3481808076653e-05,5.92245122748025e-05,-3.94218642831845e-05,-2.94637584907775e-06,2.99215382408846e-05,6.14856200904512e-05,1.14040826559858e-05,1.42063080241783e-05,-5.58249798192634e-05,0.000491716776610751,9.97833832716566e-06,0.000198533620450192,-0.000463625443176241,-2.94637584907775e-06,6.52658935083039e-05,2.99215382408846e-05,-1.72134717475458e-05,-3.94218642831845e-05,7.07612558681348e-06,3.9466021089396e-05,-2.3481808076653e-05,4.70759150950073e-05,3.33173700743927e-05,-6.0864956571649e-05,0.000137508909571871,-0.000236078354393321
"2:192176595:G:A",-0.00299559070435595,-0.000920894784822046,-0.0019048209288286,3.41659005593797e-05,-0.000276772008966475,0.000189280840527495,1.3878884913332e-05,0.000175479214898466,-0.00216031658860238,0,-0.000152549043231254,-0.00117679600040077,4.1471569040219e-05,-0.00748766258292211,-0.0015186211394429,-0.000684339082222429,-0.00199840997908041,-0.000161491387429713,-6.1537260801714e-05,-0.00125123885965994,0.000175479214898466,-5.55802382962156e-06,-0.00748766258292211,-2.1632672864591e-05,-9.36914937659239e-05,-0.00117679600040077,-0.0015186211394429,0.000117883551536302,-0.000186749509775375,7.3085476913981e-05,-8.99359388366605e-05,6.28928609822665e-05,0.0977608279358386,9.59588203786055e-05,-2.60161964211747e-05,-8.80283094621959e-05,-0.0028133768172296,0.000203459941984896,-0.00325758256067044,-0.00758772226547144,0.000191183478507995,-0.000763712896360236,3.41659005593797e-05,-0.00584952649535175,-0.00204023901756756,-0.00192864282412852,-0.00758772226547144,-8.80283094621959e-05,-0.000624966406771676,2.25603549708353e-06,7.3085476913981e-05,-0.000453553453400701,4.53447765647041e-06,-0.00165856555977051,4.1471569040219e-05,-0.00303855690144861,4.1471569040219e-05,-0.000121581398039083,-0.00275266947252817,4.53447765647041e-06,-0.000717514824644105,-0.000380883682136179,-2.38355983439575e-05,-2.81747960970691e-05,-0.00187673010793343,0.000112245711198611,-2.1632672864591e-05,-0.00374481859387821,-0.00317623931143984,4.53447765647041e-06,-0.00676850695292508,-5.95296203718121e-05,-0.000737677934371739,-0.00275266947252817,-1.71584918708945e-05,-8.21822149017493e-05,-6.86891966372727e-05,-0.00142110688952268,-0.000376885052568277,0.000106714123486285,8.72934279971815e-05,-0.0033809406624874
"2:192178502:C:G",-0.000200193336279852,9.980995219383e-05,-0.000447668931576217,-2.91418932123477e-05,0.000355176920862732,-0.000174372849508053,-1.45732677303556e-05,-0.000162959557431286,-0.000104692214867974,0,-0.000683441616424751,-0.00189068275358117,-3.69042470067527e-05,-0.00615276778522489,-8.94192177183228e-05,9.31514437487735e-05,-0.00036900127216466,0.000247164525400301,4.83234858474901e-05,-0.00194520144350552,-0.000162959557431286,-1.76628721604288e-06,-0.00615276778522489,1.51177623033405e-05,7.25288580865069e-05,-0.00189068275358117,-8.94192177183228e-05,-0.000107861315452595,-1.49672395242106e-05,-0.000200203984556779,6.86333032513531e-05,-5.35100492289331e-05,9.59588203786055e-05,0.0379302078595991,1.96856973246895e-05,6.66508036379909e-05,-0.000185162941683359,7.25288580865069e-05,0.000101699426099167,-0.00615973132535341,-0.00060095722487663,-0.00208748880417886,-2.91418932123477e-05,-0.000403838390345967,0.000124170983837324,-6.73343776407265e-05,-0.00615973132535341,6.66508036379909e-05,3.20611666548842e-06,-2.35771771972537e-06,-0.000200203984556779,7.73411914813948e-05,-4.74322883015077e-06,0.000662221855139755,-3.69042470067527e-05,2.64546441917091e-05,-3.69042470067527e-05,9.13134695412765e-05,-0.000100005184999752,-4.74322883015077e-06,4.6246318899712e-05,9.49678158743694e-05,1.74152814880202e-05,2.19294863681441e-05,-0.000462757455304441,-0.000101562222617702,1.51177623033405e-05,0.000302659073841305,-6.86413793715701e-06,-4.74322883015077e-06,9.980995219383e-05,4.6246318899712e-05,-0.00165545929938915,-0.000100005184999752,-0.00173365384053614,6.05593763340906e-05,-3.69042470067527e-05,7.16555058595247e-05,4.93442618125783e-05,0.000112140261140148,-8.67634609846846e-05,-3.29684209630088e-05
"2:192179273:T:C",4.4328414463557e-05,-2.68699662910876e-05,-0.00372947418098057,6.98580913827129e-06,-0.000107036249418435,3.94225532192038e-05,-0.00188948398182731,3.66904600364037e-05,2.3987339837106e-05,0,-0.00183487836869833,0.000145578728410811,8.63133472250865e-06,-6.40947353938159e-05,2.08852489622657e-05,-2.42040329068161e-05,-0.00362979372626793,-7.04379411393674e-05,-1.22323874816033e-05,0.000138909425629663,3.66904600364037e-05,-4.31506499865009e-07,-6.40947353938159e-05,-4.07845553240804e-06,-1.85535924321911e-05,0.000145578728410811,2.08852489622657e-05,2.46261213581178e-05,1.43659324258749e-06,1.5106836697143e-05,-1.76853896363127e-05,1.28133107599737e-05,-2.60161964211747e-05,1.96856973246895e-05,0.0298116594129647,-1.724452661378e-05,4.14859973396631e-05,-1.85535924321911e-05,-2.72897280515494e-05,-5.6750630522906e-05,-0.00197173701533782,0.000148853026981755,6.98580913827129e-06,-0.00300201516530052,-3.36312139443962e-05,1.5694293143298e-05,-5.6750630522906e-05,-0.000139566527481705,-1.50056272207877e-06,-0.00369288069201446,1.5106836697143e-05,-2.19225131505851e-05,1.02425782966264e-06,4.89712073834525e-05,-0.00231269206817863,-8.44677912326119e-06,8.63133472250865e-06,-2.3792524552313e-05,1.45250897141125e-05,1.02425782966264e-06,-0.000775454787762087,-2.46112553972111e-05,-4.5784345807931e-06,-0.00165209463527294,-0.00374008081026922,2.33547940151624e-05,-4.07845553240804e-06,-8.79708981535998e-05,6.60219620307601e-07,1.02425782966264e-06,-2.68699662919758e-05,-1.17731500148821e-05,-0.00166792510804736,1.45250897141125e-05,-3.06313312758988e-06,-1.58940453225398e-05,8.63133472250865e-06,-1.9426167134462e-05,-1.45472255512757e-05,2.21080627378356e-05,1.89595546613575e-05,7.04054047151459e-06
"2:192182151:A:C",0.000152192563227516,-0.00154812787261527,6.43886626239265e-05,2.33753456129193e-05,-0.00328946395830432,0.000135407491159256,9.85767509131819e-06,0.000125206862087168,8.07540931146988e-05,0,0.000149871694529402,0.000155826517548086,-0.00313847018526658,-0.000209959173415264,-0.00251865262768369,-8.04735325585781e-05,8.71338227508289e-05,-0.00293044239406548,-4.08301794738719e-05,0.000115896836382134,0.000125206862087168,-2.80275740305314e-06,-0.000209959173415264,-1.41574725454063e-05,-6.16974604792375e-05,0.000155826517548086,-0.00251865262768369,8.28573309918923e-05,-0.00361143769959682,5.06409314580125e-05,-5.90845986927491e-05,4.32387167110804e-05,-8.80283094621959e-05,6.66508036379909e-05,-1.724452661378e-05,0.0433389689582118,0.000142447527285761,-6.16974604792375e-05,-9.17527890953451e-05,-0.000186442314269009,0.000192352292934572,0.000195866335609196,2.33753456129193e-05,0.000292925427318735,-0.000935704588130193,-0.00292048542372125,-0.000186442314269009,-5.77566093182824e-05,-6.13767266255394e-06,1.59931555643311e-06,5.06409314580125e-05,-0.00401723489877082,3.21571201933324e-06,-0.00298471293225688,2.86184255822164e-05,-0.00106216926978941,2.86184255822164e-05,-7.92543007799296e-05,4.87607600483386e-05,3.21571201933324e-06,-3.94275990425186e-05,-8.1679392930134e-05,-1.57093535193553e-05,-1.87632592947296e-05,6.64406102890425e-05,7.86736910578512e-05,-0.00390194854127568,-0.00100557341743013,-0.00118917552810593,3.21571201933324e-06,-9.05259015615556e-05,-3.94275990425186e-05,-1.51215898460677e-05,4.87607600483386e-05,-1.1002487908307e-05,-0.00061354198195307,2.86184255822164e-05,-0.00104199590832188,-0.0039217100399398,7.4579933646568e-05,6.18462925263685e-05,-0.00142219559798118
"2:192182849:C:T",0.00105168594640404,-0.000247173445338866,-0.000195026939188381,-6.47237686433044e-05,-0.00290063021006581,-0.000333192171391161,-0.00115347854023184,-0.000367070414799997,-0.00067207427221927,0,-0.000203482455306769,0.000742838899403075,-8.3657623932254e-05,-0.00218578002829339,-0.000199416153116694,0.000200126674569034,-0.000260251914546039,-0.00142741010078762,0.000104720672858605,0.000644694975998839,-0.000753814865930735,-1.11971751568518e-05,-0.00218578002829339,-0.0032088550221463,0.000156946960780502,0.000742838899403075,-0.000199416153116694,-0.00420000578387381,-0.00131418589833743,-0.000144731901174922,0.000147340645270333,-0.000117953966471518,-0.0028133768172296,-0.000185162941683359,4.14859973396631e-05,0.000142447527285761,0.0446910930588085,0.000156946960780502,0.000212759014818431,-0.00221797892896092,-0.000192912016027336,0.000363211093382443,-6.47237686433044e-05,0.00369017864087606,0.000259674799620413,-0.000151640812030784,-0.00221797892896092,0.000142447527285761,-0.00332485203934763,-5.75233310406986e-06,-0.000144731901174922,0.000151359003628393,-1.15760844838775e-05,-4.5238853184415e-05,-0.000912388171643741,-0.00126236062943352,-8.3657623932254e-05,0.000195566369926681,-0.000137910382830064,-1.15760844838775e-05,9.96216389745896e-05,0.000204630753652957,3.59247265562246e-05,4.6978660971142e-05,-0.000202597280043904,-0.000229039616046478,3.0293558671346e-05,-0.00218782215832558,-0.00130358986077095,-1.15760844838775e-05,-0.00599452305853099,9.96216389745896e-05,-4.92571088530624e-05,-0.000137910382830064,-0.000362504522448681,0.00012739462696576,-6.82530656641589e-05,-0.00133343374579642,9.07048608711492e-05,-0.00503345711136305,-0.000206150629296076,-0.00124029236010692
"2:192190700:G:T",0.000167890648858027,0.000248727513802116,6.98722275505048e-05,2.5249546020234e-05,-0.000356281840645067,0.00014906286362848,1.05502346174902e-05,0.000137484510118746,-0.000623016919352182,0,-4.47034516373179e-05,0.000572889555376044,3.08989256456726e-05,-0.000219289732662276,7.68151685335283e-05,-8.56418820696092e-05,9.49671487555648e-05,-0.000241004995039873,0.00364785420513503,0.000540593273334444,0.000137484510118746,-3.17500621971334e-06,-0.000219289732662276,-1.52710110139509e-05,-6.58329044975758e-05,0.000572889555376044,7.68151685335283e-05,9.02711301611347e-05,1.01319290912727e-06,5.49121539910047e-05,-6.30914406318794e-05,4.68814428824516e-05,0.000203459941984896,7.25288580865069e-05,-1.85535924321911e-05,-6.16974604792375e-05,0.000156946960780502,-0.00465986693104359,-9.7561905414878e-05,-0.000195380084095476,-0.00014486448920259,0.000439319833764884,2.5249546020234e-05,-0.00108431528790209,-0.000119404145739743,5.69766840827768e-05,-0.000195380084095476,-6.16974604792375e-05,-2.6724181501514e-05,1.70982427860622e-06,5.49121539910047e-05,-8.11836665626231e-05,3.43863645113629e-06,0.000181474324604913,3.08989256456726e-05,9.81291559494224e-05,3.08989256456726e-05,-8.4370060693395e-05,5.28707469422685e-05,3.43863645113629e-06,-4.22266854833708e-05,-8.68994249207944e-05,-1.69215039713677e-05,-2.01675825648451e-05,7.21102100342819e-05,8.56828786828245e-05,-1.52710110139509e-05,0.000199586776137295,6.36654897920863e-05,3.43863645113629e-06,0.000348231363143547,-4.22266854833708e-05,-6.79162614147799e-06,5.28707469422685e-05,-1.19135520062486e-05,-5.74193180469251e-05,3.08989256456726e-05,-7.08098025041792e-05,-5.55126296157837e-05,8.11987260211922e-05,6.68930738232376e-05,2.38051311249876e-05
"2:192192027:A:G",0.000226389316724251,-0.000146390463789281,-0.00178909591831111,3.59619049392634e-05,-0.00669193363928144,-0.00130657072573648,-0.00266853501452236,-0.00319933083691915,-0.0020427362048947,0,-6.59845797530423e-05,-0.00682677970834078,4.36281852627118e-05,-0.000345780755538705,0.000107365694892003,-0.000128140281358213,-0.00188015526059182,-0.00122573129904158,-6.42582415091297e-05,-0.00658797543338707,-0.00228100761335082,-0.00276151915147427,-0.000345780755538705,-2.27438431448235e-05,-9.7561905414878e-05,-0.00682677970834078,0.000107365694892003,0.000125060886114525,-0.00284373669955507,7.71955584601969e-05,-9.37099701889821e-05,6.64305286157685e-05,-0.00325758256067044,0.000101699426099167,-2.72897280515494e-05,-9.17527890953451e-05,0.000212759014818431,-9.7561905414878e-05,0.101603117319074,-0.000305338580036008,0.000156414213120293,-0.00949564837509653,3.59619049392634e-05,0.000418164518176667,-0.000412632147980929,-0.00217571293375318,-0.000305338580036008,-9.17527890953451e-05,-0.00281122134229594,2.35086642330629e-06,7.71955584610851e-05,-0.00329668549651174,4.72589692090963e-06,-0.000725675249076296,-0.00234942556765105,-0.00293327762571582,-0.00166352368916378,-0.00166348436902108,-0.00196089100051644,4.72589692090963e-06,-6.21888055016839e-05,-0.000129912308701741,-2.50287061138721e-05,-2.9527275020591e-05,-0.00176080559078873,-0.000954759415603412,-2.27438431448235e-05,-0.00381676490047411,-1.04296073555332e-06,4.72589692090963e-06,-0.000146390463788393,-0.000610515255276667,-0.00647851356911389,-0.00196089100051644,-1.81010921576075e-05,-8.57523135193716e-05,4.36281852627118e-05,-0.000283598507068383,-0.00318557143763609,0.000113145785680224,-0.000121428788964373,3.2556720572785e-05
"2:192198080:C:T",-0.00191723406755973,-0.00778150784144849,-0.00254146984486958,7.15895612994899e-05,-0.00260106923624903,0.00041602128502749,2.44080303373195e-05,-0.00194230239000426,-0.00229892477117843,0,-0.000137756007033474,0.000206573959007805,8.48258773551436e-05,0.00291940711327232,0.000215890502536453,-0.00025748677075299,-0.00236287265786661,-0.00204091732847989,-0.000129175723696306,0.00010633096975754,-0.000585009064628217,-1.92546187314235e-05,0.00291940711327232,-4.92825927116414e-05,-0.000195380084095476,0.000206573959007805,0.000215890502536453,-0.00160584055153468,-0.000698878583180296,0.000153158351804628,-0.00123482344050796,0.000134164466910391,-0.00758772226547144,-0.00615973132535341,-5.6750630522906e-05,-0.000186442314269009,-0.00221797892896092,-0.000195380084095476,-0.000305338580036008,0.0648582975502925,-1.79706595222484e-05,-0.000555327631577729,7.15895612994899e-05,0.000288381411609251,-0.000744740927047793,0.000158039007797761,0.00297178864203396,-0.000186442314269009,-0.00675403953096865,3.95651224494031e-06,0.000153158351804628,-0.000189076957203937,7.95664075781133e-06,-0.00267120230236273,8.48258773560318e-05,3.24045114332705e-05,8.48258773560318e-05,-0.00025484347721072,-0.00231691359446362,7.95664075781133e-06,-0.000125880768697684,-0.000260100216193493,-5.30374760741026e-05,-6.0422746667399e-05,-0.00254878636977907,0.000236989619545547,-0.00118792695306968,-0.00176462513435283,-1.34888306231318e-05,7.95664075781133e-06,-0.000928731399246985,-0.000125880768697684,-0.0032815563574462,-0.00231691359446362,-0.00122871640161826,-0.00101227183705355,8.48258773560318e-05,-0.00263148565639248,-0.000271447088104004,0.000226323064697276,-0.000398214495826998,5.50557129459506e-05
"2:192199817:A:G",-0.00299053740537847,-0.00438539264475857,-0.000210177086247043,-0.00580597451342424,-0.000787293569783465,-0.00111037811362813,-4.01589050351703e-05,-0.00152311873880784,-0.000115247732754398,0,-0.000707616613746964,0.000788182786840341,-0.000121690208987779,0.000236911498519454,-0.000291091991742931,0.000268921725847804,-0.000211830489827314,0.000307821820239695,-0.000223166574011557,0.000815989926060467,0.000198747081901374,-0.0102603176511851,0.000236911498519454,-0.00210856221276856,0.000213116552294501,0.000945569504295918,-0.000291091991742931,-0.00455364757629795,-0.00666532146889232,-0.00137119407265018,-0.00362676600745893,-0.000168616473709804,0.000191183478507995,-0.00060095722487663,-0.00197173701533782,0.000192352292934572,-0.000192912016027336,-0.00014486448920259,0.000156414213120293,-1.79706595222484e-05,0.104974846423961,-0.000152117992404666,-0.00580597451342424,-0.000158762107992594,-2.0190117314911e-05,-0.000221747182813203,-1.79706595222484e-05,-0.000237520645891109,-0.0018334768971151,-8.66564133517045e-06,-0.00137119407265018,-0.00847423626871002,-1.06753535566995e-05,-0.000862629246211277,0.000261256173999413,-0.00219300985244342,-0.000121690208987779,0.000262498421452761,-0.000199981079799016,-1.06753535566995e-05,-0.00306040055750323,0.000275245869632457,-0.00229965923099495,6.43191144833466e-05,-0.000302634864282503,-0.000339121869323833,3.94492788702294e-05,-0.00166166914134447,-0.00016349677456784,-1.06753535566995e-05,0.000132365558743075,0.000135984158803559,-0.00270153010100538,-0.000199981079799016,-0.00468144348247002,-0.00168319601696609,-0.000121690208987779,7.74131435710146e-05,-0.00813993896515974,-0.00191425691552016,-0.0109646528437146,-0.000333002475867872
"2:192202918:T:C",-0.00596191169269877,-0.0017362480982257,-0.00281207078631462,-0.00148689891269793,-0.0131974987325942,-0.00231012650987328,-0.00155090662643964,-0.00866784877161964,0.00035362787789639,0,-0.00142578433880169,-0.00391288916938537,-0.0010955911877728,-0.000499844098370783,-0.000348519710883899,-0.000274877131053231,-0.00198599719954773,0.000498888356775584,0.000474162354735519,-0.00291768228801814,-0.000499985736788222,-0.000600996117620323,-0.000499844098370783,-0.00760395417887416,-0.000579574024657248,-0.00391288916938537,-0.000348519710883899,-0.000689387808146869,-0.00646207334655191,-0.00109784539368363,-0.00226266801145147,-0.000269310582026172,-0.000763712896360236,-0.00208748880417886,0.000148853026981755,0.000195866335609196,0.000363211093382443,0.000439319833764884,-0.00949564837509653,-0.000555327631577729,-0.000152117992404666,0.173691591870379,-0.00148689891269793,5.17877818522194e-05,0.000625086160220611,7.62456457144012e-05,-0.000555327631578617,-3.05412873879973e-05,-0.000336813906586908,-4.79966588127212e-05,-0.00109784539368274,-0.00514842333010446,-6.91051912156126e-05,-0.0175337591311955,-0.00157149143551827,-0.000685538508683248,-0.00271874467132083,-0.0026764555954184,-0.00417309552374157,-6.91051912156126e-05,0.000432463280012563,-0.00224543710711345,-0.00286247350690516,-0.00191143245388226,-0.00137118968117633,-0.00948611635005125,-0.00115054937352621,-0.00372931322436365,-0.000602561095216725,-6.91051912156126e-05,-0.00348023237070949,0.000432463280012563,-0.00371473752605178,-0.00417309552374157,-0.00208985820336061,-0.00330980221895683,-0.000112249138688014,-0.00179517854889033,-0.00433564104812145,-0.000725284913844604,-0.00362335574981065,-0.000728772170195402
"2:192203263:C:A",-6.98210695961876e-05,3.53708539631015e-05,-2.9115733268803e-05,0.000601974998783561,-0.00195901694661593,-6.10684584572141e-05,-4.75981272707315e-06,-0.000786304131611182,-3.61811317297622e-05,0,-0.00563753734213712,-0.00165266647121953,-1.26504072346378e-05,7.98270961999137e-05,-3.10912649359452e-05,3.24939056257634e-05,-3.93930293327571e-05,-0.00219602591330936,1.68485690217324e-05,-0.00164782144846054,-0.00642072874314259,2.48692693105568e-08,7.98270961999137e-05,5.50463292636749e-06,2.5249546020234e-05,-0.00165266647121953,-3.10912649359452e-05,-3.72380970485864e-05,-3.55577541277796e-06,-2.22995075365162e-05,2.40075632964576e-05,-0.00120277115958967,3.41659005593797e-05,-2.91418932123477e-05,6.98580913827129e-06,2.33753456129193e-05,-6.47237686433044e-05,2.5249546020234e-05,3.59619049392634e-05,7.15895612994899e-05,-0.00580597451342424,-0.00148689891269793,0.0434007987701523,-0.000142717132278314,4.38254658554627e-05,-2.32371161770217e-05,7.15895612994899e-05,2.33753456129193e-05,1.63949465203928e-06,-7.69652941379206e-07,-2.22995075365162e-05,2.8335662961787e-05,-1.5485391680059e-06,-8.00042847526328e-05,-1.26504072346378e-05,-0.0057807230731397,-1.26504072346378e-05,3.19134092405804e-05,-2.13733578782183e-05,-1.5485391680059e-06,1.61806301779421e-05,3.3067493097505e-05,6.24968793694336e-06,7.71315590775146e-06,-3.01398368982575e-05,-0.000944453486271257,5.50463292636749e-06,0.000105083373269643,-0.000203347235685492,-1.5485391680059e-06,3.53708539639896e-05,1.61806301779421e-05,-0.00535563574276043,-2.13733578782183e-05,3.98706449278308e-06,2.14321368208203e-05,-1.26504072346378e-05,2.56992843032933e-05,1.86344826387241e-05,-3.30891872497574e-05,-0.001303600433606,-6.91348226036226e-05
"2:192206947:C:T",0.00131560336683378,-0.00389792736713801,-0.000454483798192129,-0.000142717132278314,-0.00194987676415526,-0.000721385879027814,-0.00111975746792492,-0.000820225737768077,-0.000904874675073941,0,-0.00033065912853214,0.000838912815044779,-0.00092939478787013,0.000412004306292069,-0.00044033986643921,-0.00312768499564609,-0.000596723442003011,-0.000823382102701942,-0.00120221122977426,0.000665384347449116,-0.0015431152952754,-5.7173924858489e-05,0.000412004306292069,-0.00315964610029429,0.000331917640527202,0.000838912815044779,-0.00044033986643921,-0.00356898877987799,-0.000220166284587542,-0.000324393501303533,0.000306093417373532,-0.000255413571829344,-0.00584952649535175,-0.000403838390345967,-0.00300201516530052,0.000292925427318735,0.00369017864087606,-0.00108431528790209,0.000418164518176667,0.000288381411609251,-0.000158762107992594,5.17877818522194e-05,-0.000142717132278314,0.0879106425053742,-0.00107757718840951,-0.000342222638575862,0.000288381411609251,-0.00234194834635382,-0.00696403097997678,-0.000343776345309799,-0.000324393501303533,-0.000173319563468333,-0.00140992582730082,-0.00106044576309561,-0.00092939478787013,-5.54985103047301e-05,-0.000191825650029287,0.000405339575005215,-0.000306802692190189,-0.00140992582730082,-0.00252749774184124,-0.00611260862786089,6.74401609730424e-05,9.65639541083974e-05,-0.00118208830270383,-0.000516370455289739,-0.00140828094470002,-0.00454844647108477,-0.000150370378169562,-0.00140992582730082,-0.00414918289658051,0.000207931990526156,-0.00110092404993756,-0.000306802692190189,-0.000326144114723093,0.000252356662607589,-0.00945947228091182,-0.00269180674411906,-0.000283027291130722,-0.00527251408443519,-0.000512072821825527,-0.00253024743043806
"2:192210663:C:G",-0.00150664183596927,2.07290080647127e-05,0.000117609725638346,4.38254658554627e-05,-0.00546471634901025,0.000247811490163841,1.70661477980616e-05,0.000228678631708945,-3.25873473849825e-05,0,7.94774235606255e-05,0.000526472700621117,5.28977062081992e-05,-0.000768955788748471,-0.00295429216469412,-0.000157065528947342,0.000159328022933281,-0.00287822529759563,-7.86526296181478e-05,0.000474429850690683,0.000228678631708945,-0.0027073791358907,-0.000768955788748471,-0.00142930473330694,-0.000119404145739743,0.000526472700621117,-0.00295429216469412,-1.37586778947707e-05,-0.0013663257416443,-0.00198174510040072,-0.000114933337759915,8.11497094348468e-05,-0.00204023901756756,0.000124170983837324,-3.36312139443962e-05,-0.000935704588130193,0.000259674799620413,-0.000119404145739743,-0.000412632147980929,-0.000744740927047793,-2.0190117314911e-05,0.000625086160220611,4.38254658554627e-05,-0.00107757718840951,0.0575656458930958,-0.00217290137297077,-0.000744740927047793,-0.000112661252484436,-1.44397055867884e-05,2.77062818465623e-06,-0.00198174510040072,-0.00125936403165916,5.57014273638856e-06,-0.000118796426528789,5.28977062081992e-05,-3.13306858235052e-05,-0.00228284249551702,-0.000155001470210969,9.06862761445026e-05,5.57014273638856e-06,-0.000638535987953048,-0.000159106962722255,-3.09770075412885e-05,-3.62574865668819e-05,0.000121137358833678,0.000144830572655685,-2.82944246334793e-05,-0.000348792816422971,-0.00298281990783611,5.57014273638856e-06,-0.000428027329705039,-7.62362110577897e-05,-0.000140853111362027,9.06862761445026e-05,-2.28423118810994e-05,-0.000105693409024887,-0.00206891800072917,-0.00694320569733886,-0.00126605857269624,-0.00159465995428043,-0.00233799430849047,-0.00317829768136324
"2:192211228:A:G",-0.000164236034711607,-0.00447106796874674,-6.82064282830908e-05,-2.32371161770217e-05,-0.000801745671234144,-0.00014263794275049,-1.13886629806714e-05,-0.00380885906143735,-8.44277462999088e-05,0,-0.000172761934386756,0.000184905690860937,-2.93689086134918e-05,0.000175621127969983,0.000165755055318684,7.2982642002728e-05,-9.22603380750786e-05,-0.00221614073744991,3.81303109788789e-05,0.000170074126021547,-0.000132875982119529,-0.00164874790836844,0.000175621127969983,1.21628615339375e-05,5.69766840827768e-05,0.000184905690860937,0.000165755055318684,-8.70029968957908e-05,-0.00257463516617396,-5.16904851250999e-05,5.40385236051932e-05,-4.29154458361225e-05,-0.00192864282412852,-6.73343776407265e-05,1.5694293143298e-05,-0.00292048542372125,-0.000151640812030784,5.69766840827768e-05,-0.00217571293375318,0.000158039007797761,-0.000221747182813203,7.62456457144012e-05,-2.32371161770217e-05,-0.000342222638575862,-0.00217290137297077,0.05908615291637,0.000158039007797761,5.25413771201855e-05,-0.00169037884319501,-1.83806574138856e-06,-5.16904851250999e-05,-0.0022467528554504,-3.6995431136333e-06,1.87188496170165e-05,-2.93689086134918e-05,-0.00381959895011352,-2.93689086134918e-05,-0.0017838415287077,-4.94538724771232e-05,-3.6995431136333e-06,3.65458804241214e-05,7.43363259152474e-05,1.39398687064585e-05,1.74265591850187e-05,-7.06962058272254e-05,-0.00353437784795929,1.21628615339375e-05,-0.00810366531687734,-0.00174609499289158,-3.6995431136333e-06,7.85543872545702e-05,3.65458804241214e-05,-0.00271442146169765,-4.94538724771232e-05,8.5393471334072e-06,-0.00220054443762052,-2.93689086134918e-05,-0.00236553460865707,-0.00232239728585437,-7.69072598281184e-05,-0.000155501268099378,-0.00164690205748652
"2:192213672:T:G",-0.00191723406755973,-0.00778150784144849,-0.00254146984486958,7.15895612994899e-05,-0.00260106923624903,0.00041602128502749,2.44080303373195e-05,-0.00194230239000426,-0.00229892477117843,0,-0.000137756007033474,0.000206573959007805,8.48258773551436e-05,0.00291940711327232,0.000215890502536453,-0.00025748677075299,-0.00236287265786661,-0.00204091732847989,-0.000129175723696306,0.00010633096975754,-0.000585009064628217,-1.92546187314235e-05,0.00291940711327232,-4.92825927116414e-05,-0.000195380084095476,0.000206573959007805,0.000215890502536453,-0.00160584055153468,-0.000698878583180296,0.000153158351804628,-0.00123482344050796,0.000134164466910391,-0.00758772226547144,-0.00615973132535341,-5.6750630522906e-05,-0.000186442314269009,-0.00221797892896092,-0.000195380084095476,-0.000305338580036008,0.00297178864203396,-1.79706595222484e-05,-0.000555327631578617,7.15895612994899e-05,0.000288381411609251,-0.000744740927047793,0.000158039007797761,0.0648582975502934,-0.000186442314269009,-0.00675403953096865,3.95651224494031e-06,0.000153158351804628,-0.000189076957203937,7.95664075781133e-06,-0.00267120230236273,8.48258773560318e-05,3.24045114332705e-05,8.48258773560318e-05,-0.00025484347721072,-0.00231691359446362,7.95664075781133e-06,-0.000125880768697684,-0.000260100216193493,-5.30374760741026e-05,-6.0422746667399e-05,-0.00254878636977907,0.000236989619545547,-0.00118792695306968,-0.00176462513435283,-1.34888306231318e-05,7.95664075781133e-06,-0.000928731399246985,-0.000125880768697684,-0.0032815563574462,-0.00231691359446362,-0.00122871640161826,-0.00101227183705355,8.48258773560318e-05,-0.00263148565639248,-0.000271447088104004,0.000226323064697276,-0.000398214495826998,5.50557129459506e-05
"2:192215990:G:A",0.000152192563227516,-9.05259015615556e-05,-0.00275540534894425,2.33753456129193e-05,-0.000347681745955342,0.000135407491159256,-0.000416861550848857,-0.00210567415600948,8.07540931146988e-05,0,-0.000272668922913333,-0.00013860656112552,2.86184255822164e-05,-0.000209959173415264,7.05732136170312e-05,-8.04735325585781e-05,-0.00263964167633191,-0.000231435875199359,-4.08301794738719e-05,-0.000132074122477732,0.000125206862087168,-2.80275740305314e-06,-0.000209959173415264,-1.41574725454063e-05,0.00111008607499041,-0.00013860656112552,7.05732136170312e-05,-0.00178282047945455,1.32298707455902e-06,5.06409314580125e-05,-5.90845986927491e-05,4.32387167110804e-05,-8.80283094621959e-05,6.66508036379909e-05,-0.000139566527481705,-5.77566093182824e-05,0.000142447527285761,-6.16974604792375e-05,-9.17527890953451e-05,-0.000186442314269009,-0.000237520645891109,-3.05412873879973e-05,2.33753456129193e-05,-0.00234194834635382,-0.000112661252484436,5.25413771201855e-05,-0.000186442314269009,0.0547378436579233,-6.13767266255394e-06,-0.00324215439546194,5.06409314580125e-05,-7.60116995568438e-05,3.21571201933324e-06,-0.0053183771637082,-0.000442142528516598,-0.00368293093497751,2.86184255822164e-05,-0.000490523722404212,4.87607600483386e-05,3.21571201933324e-06,-0.000353144882878631,-8.1679392930134e-05,-0.00594389400069684,-0.00190370623486302,-0.00276469920025768,-0.00192911337592427,-1.41574725454063e-05,-0.000286235682326996,-0.0036216325574312,3.21571201933324e-06,-9.05259015615556e-05,-3.94275990425186e-05,-0.00667876998108774,4.87607600483386e-05,-1.1002487908307e-05,-5.36835203819308e-05,2.86184255822164e-05,-6.62748603392771e-05,-5.16773451249009e-05,7.4579933646568e-05,-0.00137295753391964,-0.00347998720980414
"2:192220237:T:G",-0.00305250551212666,-0.00404869783709838,3.19538535986652e-06,1.63949465203928e-06,-8.47198469768884e-05,1.54796138662761e-06,8.14335017196299e-07,2.09217367608261e-06,-0.00258768570552181,0,2.20177102239205e-06,-0.000126423009496612,1.95340102671082e-06,-0.00661749085873797,-0.00130615487172392,-9.40726982978646e-06,3.25064329320668e-06,-3.04148350531719e-05,-4.06803792074584e-06,-0.000112708997886291,2.09217367608261e-06,-8.3784080118221e-08,-0.00661749085873797,-1.17794829890272e-06,-6.73126537531488e-06,-0.000126423009496612,-0.00130615487172392,3.28445369746078e-06,-0.00177801271310774,2.86402747384784e-06,-6.3358266402247e-06,2.59140218883402e-06,-0.000624966406771676,3.20611666548842e-06,-1.50056272207877e-06,-6.13767266255394e-06,-0.00332485203934763,-2.6724181501514e-05,-0.00281122134229594,-0.00675403953096865,-0.0018334768971151,-0.000336813906586908,1.63949465203928e-06,-0.00696403097997678,-1.44397055867884e-05,-0.00169037884319501,-0.00675403953096865,-6.13767266255394e-06,0.0790358626989676,1.39636072482574e-07,2.86402747384784e-06,-0.00153065613532899,2.77816030624933e-07,-0.00220591691742733,1.95340102671082e-06,-0.00175093489230793,1.95340102671082e-06,-9.19809811339434e-06,2.80097211113883e-06,2.77816030624933e-07,-3.88527000438899e-06,-9.61570945356982e-06,-1.3387950446031e-06,-1.66318725103309e-06,3.22507042049835e-06,3.29536204635161e-06,-1.17794829890272e-06,-0.00310655159264872,-0.00181589831683393,2.77816030624933e-07,-0.00607533868632881,-3.88527000438899e-06,-4.08505485518518e-05,2.80097211113883e-06,-8.59287480281523e-07,-5.54185618195646e-06,-4.55688562031042e-05,-7.07066957250646e-06,-0.00158158721705703,3.28496754331553e-06,3.18259465892368e-06,-0.00192558379905083
"2:192226035:A:G",-6.27266165054152e-06,2.31983235732258e-06,-2.33117605485944e-06,-7.69652941379206e-07,4.89448392926306e-06,-0.00270403259769925,-3.4571705587183e-07,-4.93375073418179e-06,-2.96995757498308e-06,0,-6.39731386353759e-06,-4.53665523911795e-05,-9.66290887305377e-07,4.22276069578231e-06,-2.5251342048449e-06,2.14169470780234e-06,-3.25633542619386e-06,4.40899106024517e-06,1.17754508988099e-06,-4.05215296312988e-05,-4.93375073418179e-06,2.53086493984256e-08,4.22276069578231e-06,4.084350075928e-07,1.70982427860622e-06,-4.53665523911795e-05,-2.5251342048449e-06,-3.0637157522051e-06,-2.04072093445973e-07,-1.76080958969038e-06,1.63678255571398e-06,-1.46471590767305e-06,2.25603549708353e-06,-2.35771771972537e-06,-0.00369288069201446,1.59931555643311e-06,-5.75233310406986e-06,1.70982427860622e-06,2.35086642330629e-06,3.95651224494031e-06,-8.66564133517045e-06,-4.79966588127212e-05,-7.69652941379206e-07,-0.000343776345309799,2.77062818465623e-06,-1.83806574138856e-06,3.95651224494031e-06,-0.00324215439546194,1.39636072482574e-07,0.0125847254740901,-1.76080958969038e-06,1.9373982134141e-06,-1.11335618058206e-07,-7.24155171649699e-06,-9.66290887305377e-07,7.97132837071501e-07,-9.66290887305377e-07,2.10994640070794e-06,-1.6848761470456e-06,-1.11335618058206e-07,-0.00239913397667202,2.17290302906292e-06,4.59453442402946e-07,5.58912898185326e-07,-2.41860993366316e-06,-2.87784735242269e-06,4.084350075928e-07,4.76984958286408e-06,-9.31935728587518e-08,-1.11335618058206e-07,2.31983235821076e-06,1.1353983699891e-06,-6.33008063744001e-08,-1.6848761470456e-06,3.03720501193538e-07,1.48295216018113e-06,-9.66290887305377e-07,1.75981544892068e-06,1.33922533684938e-06,-2.69841823108408e-06,-2.30149099511578e-06,-7.97445297351373e-07
"2:192229060:A:G",-0.000156642998715206,7.5843652354024e-05,-0.00125541181280031,-2.22995075365162e-05,0.000259355500182856,-0.000136210276020066,-1.09041710407709e-05,-0.000910985352228444,-8.07701239891045e-05,0,-0.00306676697829555,-0.00110924370813237,-2.81597606308637e-05,0.000170368345321137,-6.90008915347207e-05,7.04026132956059e-05,-0.00117034025460327,0.000183370737953936,3.67152184468367e-05,-0.00105564566286098,-0.000910985352228444,-8.42382519294915e-07,0.000170368345321137,1.17196056717006e-05,5.49121539910047e-05,-0.00110924370813237,-6.90008915347207e-05,-0.00356431312601124,-0.00617545952461374,0.00084149699720637,5.20824187510982e-05,-4.11583411619176e-05,7.3085476913981e-05,-0.000200203984556779,1.5106836697143e-05,5.06409314580125e-05,-0.000144731901174922,5.49121539910047e-05,7.71955584610851e-05,0.000153158351804628,-0.00137119407265018,-0.00109784539368274,-2.22995075365162e-05,-0.000324393501303533,-0.00198174510040072,-5.16904851250999e-05,0.000153158351804628,5.06409314580125e-05,2.86402747384784e-06,-1.76080958969038e-06,0.0439630609480055,-0.00558851975959929,-3.54367719257453e-06,-0.00044761523663972,-2.81597606308637e-05,2.12117853637395e-05,-2.81597606308637e-05,6.90801377034589e-05,-4.73967683420895e-05,-3.54367719257453e-06,3.51919562984193e-05,7.17087378765413e-05,-0.00270764970826409,1.67688787575671e-05,-6.76360618188099e-05,-0.00104285225144718,1.17196056717006e-05,0.000222345183471084,-4.64823619594767e-06,-3.54367719257453e-06,7.58436523531358e-05,3.51919562984193e-05,-0.000159312036632997,-4.73967683420895e-05,-0.00174454453478745,4.62059283989902e-05,-2.81597606308637e-05,-0.00182056115449569,-0.00571995158724192,-7.36164048822374e-05,-0.00139492917843143,-2.47373975552634e-05
"2:192231178:T:G",-0.0054610259168193,-0.00255718909410163,-0.00186503777406966,2.8335662961787e-05,-0.016456714939852,-0.00359602388641278,1.18717299546489e-05,0.000135937369655892,-7.03884219257489e-05,0,-0.0092545654200622,-0.0081432512260502,-0.00306397259394942,-0.000246948272358161,-0.000432952725708979,-0.00132433887707784,-0.00196687211061253,-0.00858074195424319,-5.27453633880626e-05,-0.00801725366959039,-0.00368191968552267,-9.66203265040377e-05,-0.000246948272358161,-0.00330230063939219,-8.11836665626231e-05,-0.0081432512260502,-0.000432952725708979,9.44160803983962e-05,-0.00252565228039536,-0.00558851975959929,0.000448022951370142,5.14346227271645e-05,-0.000453553453400701,7.73411914813948e-05,-2.19225131505851e-05,-0.00401723489877082,0.000151359003628393,-8.11836665626231e-05,-0.00329668549651174,-0.000189076957203937,-0.00847423626871002,-0.00514842333010446,2.8335662961787e-05,-0.000173319563468333,-0.00125936403165916,-0.0022467528554504,-0.000189076957203937,-7.60116995568438e-05,-0.00153065613532899,1.9373982134141e-06,-0.00558851975959929,0.152896365722747,3.89106461096134e-06,-0.000630013158954057,3.44274188179838e-05,-0.00146408823265354,-0.00221817297308569,-0.000106187017410164,-0.00270793915299805,3.89106461096134e-06,-5.09455033137485e-05,-0.000304623153031258,-0.00141264467939806,-2.38155620913005e-05,-2.54375674826335e-05,9.00639336425257e-05,-0.00238586054596901,-0.000149301657022427,-0.00141305702772865,3.89106461096134e-06,-0.000642755673080586,-0.000649242299563646,-0.000989374683467492,-0.00270793915299805,-0.00327579354065843,-0.00412330055511934,3.44274188179838e-05,-0.00134704238208361,0.00237368021042439,-0.000397334200728849,-0.000267424713750408,-0.00124194772404973
"2:192232398:C:T",-1.26261717738885e-05,4.66325725501093e-06,-4.69458785001819e-06,-1.5485391680059e-06,9.84416599703053e-06,-1.08361134545376e-05,-6.97404381355682e-07,-9.93021713036057e-06,-0.00190888268641665,0,8.67292005501952e-06,-8.20115347099915e-05,-1.94521041141371e-06,8.49229564003906e-06,-5.0809618699077e-06,4.30683924879105e-06,-6.55641697200338e-06,8.86670644995036e-06,2.36814160015086e-06,-7.20351240932615e-05,-9.93021713036057e-06,-0.00246230428054783,8.49229564003906e-06,8.20164051340555e-07,3.43863645113629e-06,-8.20115347099915e-05,-5.0809618699077e-06,-6.16767905725624e-06,-4.20763819342085e-07,-3.54367719257453e-06,3.29129625331603e-06,-2.94637584907775e-06,4.53447765647041e-06,-4.74322883015077e-06,1.02425782966264e-06,3.21571201933324e-06,-1.15760844838775e-05,3.43863645113629e-06,4.72589692090963e-06,7.95664075781133e-06,-1.06753535566995e-05,-6.91051912156126e-05,-1.5485391680059e-06,-0.00140992582730082,5.57014273638856e-06,-3.6995431136333e-06,7.95664075781133e-06,3.21571201933324e-06,2.77816030624933e-07,-1.11335618058206e-07,-3.54367719257453e-06,3.89106461096134e-06,0.0244339989927385,-0.00276528031879142,-1.94521041141371e-06,-0.000262255642519804,-1.94521041141371e-06,4.24279011923545e-06,-3.39048759556704e-06,9.84416599614235e-06,2.28312704919631e-06,4.36979587714603e-06,9.23086590276512e-07,1.12371728366867e-06,-4.87105296897994e-06,-5.79260678978955e-06,8.20164051340555e-07,-0.00682353095662158,-0.000309503754539087,9.84416599614235e-06,4.66325725412275e-06,2.28312704919631e-06,-0.00778748523144213,-3.39048759556704e-06,6.08901212117985e-07,2.98094191641951e-06,-1.94521041141371e-06,3.53622651605434e-06,2.68699231220637e-06,-5.43056676338693e-06,-4.64016074186446e-06,-0.000407687031903414
"2:192233424:A:G",-0.000217349111768961,0.000146135072392362,-0.00302161331664941,-8.00042847526328e-05,-0.00179719216921548,-0.000520163865371792,-0.00245502178173762,-9.4314717808075e-05,-0.0015340780338855,0,-0.000350977197485669,-0.0181849225323512,-0.00294424243640368,0.000225278995454659,8.13316737868774e-05,-0.000947237228236197,-0.0034644421643657,-0.00535033385063599,0.000122819421438436,-0.0177896614129529,-0.000656488783097764,-0.00149607357393844,0.000225278995454659,-0.0110891848718584,-0.000918540505538523,-0.0171116031911853,8.13316737868774e-05,-0.000136375299454983,-0.00480349310138362,-0.00044761523663972,0.000170529286954491,-0.000147180928700585,-0.00165856555977051,0.000662221855139755,4.89712073834525e-05,-0.00298471293225688,-4.5238853184415e-05,0.000181474324604913,-0.000725675249076296,-0.00267120230236273,-0.000862629246211277,-0.0175337591311955,-8.00042847526328e-05,-0.00106044576309561,-0.000118796426528789,1.87188496170165e-05,-0.00267120230236273,-0.0053183771637082,-0.00220591691742733,-7.24155171649699e-06,-0.00044761523663972,-0.000630013158954057,-0.00276528031879142,0.2035896258117,-0.00294424243640368,-0.00237522951138036,0.000247973834761162,-0.000121469517885053,-0.00271340022904631,-0.00276528031879142,0.000116809539712825,-0.000636375188403981,-0.00241902895222523,-0.00173818035442164,-0.00849300360346206,-0.00050724148948067,-0.00460048721408324,-0.00907734271958915,-0.00170806100789012,-0.00276528031879142,9.52511317562355e-05,0.000116809539712825,-0.0118963591483512,-0.00271340022904631,-0.00401064424290265,-0.00109345732868782,-0.00155947643627918,5.58028086361517e-05,-0.000761155677379222,-0.00215582404097425,-0.000291759200219843,-0.00149487886314503
"2:192234692:A:G",-9.05481323378865e-05,-0.00223826357609358,-0.00298417580888977,-1.26504072346378e-05,-0.0022600156541408,-7.87396582309086e-05,-0.0036769419697178,-7.30551624439357e-05,-4.60825049426461e-05,0,0.00016552239351153,-0.00149393741269854,-1.58984600471257e-05,9.40193851972637e-05,-3.94381423136636e-05,3.95638309891311e-05,-0.0031221310126508,0.000101174627880063,2.07294228831145e-05,-0.00153485908330087,-7.30551624439357e-05,-7.32035267958508e-08,9.40193851972637e-05,6.78625804262367e-06,3.08989256456726e-05,-0.00149393741269854,-3.94381423136636e-05,-0.00134228272294301,-4.71156203918355e-06,-2.81597606308637e-05,2.93884296915792e-05,-2.3481808076653e-05,4.1471569040219e-05,-3.69042470067527e-05,-0.00231269206817863,2.86184255822164e-05,-0.000912388171643741,3.08989256456726e-05,-0.00234942556765105,8.48258773560318e-05,0.000261256173999413,-0.00157149143551827,-1.26504072346378e-05,-0.00092939478787013,5.28977062081992e-05,-2.93689086134918e-05,8.48258773560318e-05,-0.000442142528516598,1.95340102671082e-06,-9.66290887305377e-07,-2.81597606308637e-05,3.44274188179838e-05,-1.94521041141371e-06,-0.00294424243640368,0.0420810346292964,-0.00195092705938649,-1.58984600471257e-05,3.88649278972863e-05,-2.6966789422822e-05,-1.94521041141371e-06,1.99084086967005e-05,4.02537818580129e-05,7.71484301065328e-06,9.53596467745399e-06,-0.00296039669291837,-4.47168036217249e-05,6.78625804262367e-06,0.000121399937299316,-0.00193823717004893,-1.94521041141371e-06,4.29191559527808e-05,1.99084086967005e-05,-0.0025404751338467,-2.6966789422822e-05,4.89185215091226e-06,2.62470647260926e-05,-1.58984600471257e-05,3.13430161940076e-05,2.27026930597063e-05,-4.20413848223333e-05,-3.7070426913921e-05,-0.00182965480402597
"2:192240539:T:G",-0.00136216579783888,-0.000125808046003151,-0.00190474248670203,-0.0057807230731397,-0.000392863369776286,4.17457920613984e-05,-0.002249201198401,-0.00148129473014347,-6.49552623608329e-05,0,-0.00183505961747699,-0.00110192483488758,-5.09475829302275e-05,1.46609160980304e-05,-0.00304349371854151,-4.54058163068538e-05,-0.00178922986821473,-0.00169698780710803,0.000102070172077084,-0.000382231579693304,4.04014262107566e-05,-0.00425016419127644,1.46609160980304e-05,-6.78404464071747e-06,-3.36051842468876e-05,-0.000397730126719509,-0.00304349371854151,3.14298056087736e-05,-0.00229491447383623,2.12117853637395e-05,-3.19279664031669e-05,-0.000435984504069786,-0.00303855690144861,2.64546441917091e-05,-8.44677912326119e-06,-0.00106216926978941,-0.00126236062943352,9.81291559494224e-05,-0.00293327762571582,3.24045114332705e-05,-0.00219300985244342,-0.000685538508683248,-0.0057807230731397,-5.54985103047301e-05,-3.13306858235052e-05,-0.00381959895011352,3.24045114332705e-05,-0.00368293093497751,-0.00175093489230793,7.97132837071501e-07,2.12117853637395e-05,-0.00146408823265354,-0.000262255642519804,-0.00237522951138036,-0.00195092705938649,0.0880761540538137,1.28193206929694e-05,-4.45701058504611e-05,-0.00158503384839204,-0.000262255642519804,-2.04551981335399e-05,-4.62352240271358e-05,-7.61716003427892e-06,-9.27284718166277e-06,-0.001916184918759,-0.00167367111463879,-0.00269330009818347,-0.00331244162504252,0.00208622273193804,-0.000262255642519804,-0.00274823495900911,-2.04551981335399e-05,-0.00407958602397729,-0.00158503384839204,-5.10756577387639e-06,-0.00038717752315609,-0.0019509270593856,-0.000107388433407074,-0.0033358127435994,2.8980512790433e-05,-0.000368485120874062,0.00189825878553229
"2:192242859:G:C",-9.05481323378865e-05,4.29191559518927e-05,-0.00298417580888977,-1.26504072346378e-05,-0.00104269800182077,-7.87396582309086e-05,-5.9921786270678e-06,-0.00111750362228413,-4.60825049426461e-05,0,-9.38766773703748e-05,-0.00280803337001512,-1.58984600471257e-05,9.40193851972637e-05,-3.94381423136636e-05,3.95638309891311e-05,-0.0031221310126508,0.000101174627880063,2.07294228831145e-05,-0.00272452932285816,-7.30551624439357e-05,-7.32035267958508e-08,9.40193851972637e-05,6.78625804262367e-06,3.08989256456726e-05,-0.00280803337001512,-3.94381423136636e-05,-4.74673814014892e-05,-0.00192804331131047,-2.81597606308637e-05,2.93884296915792e-05,-2.3481808076653e-05,4.1471569040219e-05,-3.69042470067527e-05,8.63133472250865e-06,2.86184255822164e-05,-8.3657623932254e-05,3.08989256456726e-05,-0.00166352368916378,8.48258773560318e-05,-0.000121690208987779,-0.00271874467132083,-1.26504072346378e-05,-0.000191825650029287,-0.00228284249551702,-2.93689086134918e-05,8.48258773560318e-05,2.86184255822164e-05,1.95340102671082e-06,-9.66290887305377e-07,-2.81597606308637e-05,-0.00221817297308569,-1.94521041141371e-06,0.000247973834761162,-1.58984600471257e-05,1.28193206929694e-05,0.039044108647432,3.88649278972863e-05,-2.6966789422822e-05,-1.94521041141371e-06,1.99084086967005e-05,4.02537818580129e-05,7.71484301065328e-06,9.53596467745399e-06,-0.00296039669291837,-0.00126932848035466,6.78625804262367e-06,0.000121399937299316,-2.15652920321219e-06,-1.94521041141371e-06,4.29191559527808e-05,1.99084086967005e-05,-0.00162533079460481,-2.6966789422822e-05,4.89185215091226e-06,2.62470647260926e-05,-1.58984600471257e-05,-0.0021042217628171,-0.002158707194444,-4.20413848223333e-05,-0.00162674853824907,-1.36217903454749e-05
"2:192243746:T:C",0.000208763229802678,-0.000124778596199526,8.74057374149473e-05,3.19134092405804e-05,-0.00197430312409708,0.000186042208697224,1.3010740437025e-05,-0.00890249829898782,0.000110178271540029,0,0.000203076501632538,-0.00288566329926354,3.88649278972863e-05,-0.000286843395866931,9.65571743458682e-05,-0.00639645940759248,0.000118721727436544,0.000599845693682433,-5.58811676780735e-05,-0.0029592553090767,0.000171538633899182,-4.81265688989652e-06,-0.000286843395866931,-1.97378469808385e-05,0.000720358850918146,-0.00288566329926354,9.65571743458682e-05,0.000112994155052171,-0.000949481081341297,6.90801377034589e-05,-0.000304332215787184,5.92245122748025e-05,-0.000121581398039083,9.13134695412765e-05,-2.3792524552313e-05,-7.92543007799296e-05,0.000195566369926681,-8.4370060693395e-05,-0.00166348436902108,-0.00025484347721072,0.000262498421452761,-0.0026764555954184,3.19134092405804e-05,0.000405339575005215,-0.000155001470210969,-0.0017838415287077,-0.00025484347721072,-0.000490523722404212,-9.19809811339434e-06,2.10994640070794e-06,6.90801377034589e-05,-0.000106187017410164,4.24279011923545e-06,-0.000121469517885053,3.88649278972863e-05,-4.45701058504611e-05,3.88649278972863e-05,0.0481136088120611,6.65760424416462e-05,4.24279011923545e-06,-5.40495657368467e-05,-0.000111694286371034,-0.000964777414110607,-2.57868147164331e-05,9.01433627751302e-05,-0.0131643833940593,-1.97378469808385e-05,-0.000390836932543159,-3.25277981438887e-07,4.24279011923545e-06,-0.000124778596199526,-5.40495657368467e-05,-9.16960194912164e-05,6.65760424416462e-05,-1.55925832014958e-05,-7.3964677856253e-05,3.88649278972863e-05,-9.18228054311854e-05,-7.29626729851773e-05,0.000101915952245513,-0.00141699794420536,2.93283744001727e-05
"2:192244444:T:C",-0.000149149837065821,-0.00270161290633997,-6.23673464499319e-05,-2.13733578782183e-05,-0.00178803510001746,-0.000129861405860687,-1.04280976964688e-05,-0.000120990140627164,-7.71610477503515e-05,0,-0.000156233552645269,-0.00398219387813459,-2.6966789422822e-05,-0.00231680600245099,-6.59816364070309e-05,6.78509587022091e-05,-8.4225805435878e-05,0.00017794392544257,3.53159438661876e-05,-0.00404822689359907,-0.000120990140627164,-0.00148571128584152,-0.00231680600245099,1.12795477162919e-05,5.28707469422685e-05,-0.00398219387813459,-6.59816364070309e-05,-7.94850425593907e-05,-0.0030300609137548,-4.73967683420895e-05,5.01475600342971e-05,-3.94218642831845e-05,-0.00275266947252817,-0.000100005184999752,1.45250897141125e-05,4.87607600483386e-05,-0.000137910382830064,5.28707469422685e-05,-0.00196089100051644,-0.00231691359446362,-0.000199981079799016,-0.00417309552374157,-2.13733578782183e-05,-0.000306802692190189,9.06862761445026e-05,-4.94538724771232e-05,-0.00231691359446362,4.87607600483386e-05,2.80097211113883e-06,-1.6848761470456e-06,-4.73967683420895e-05,-0.00270793915299805,-3.39048759556704e-06,-0.00271340022904631,-2.6966789422822e-05,-0.00158503384839204,-2.6966789422822e-05,6.65760424416462e-05,0.0599232001620891,-3.39048759556704e-06,3.38527972099101e-05,6.91103518626335e-05,1.29123543040066e-05,1.61181202766869e-05,-6.46197651823499e-05,-7.48671806620749e-05,1.12795477162919e-05,-0.00241246466219014,-4.38410018688273e-06,-3.39048759556704e-06,-0.00260210905699942,3.38527972099101e-05,-0.00252744039091457,0.000977860265847674,-0.00164726669023274,4.44957436052107e-05,-2.6966789422822e-05,5.29060442771012e-05,-0.00278197903338118,-7.03675302942131e-05,-0.00129464375555255,-2.3637556905598e-05
"2:192249630:T:A",-1.26261717738885e-05,4.66325725501093e-06,-4.69458785001819e-06,-1.5485391680059e-06,9.84416599703053e-06,-1.08361134545376e-05,-6.97404381355682e-07,-9.93021713036057e-06,-0.00190888268641665,0,8.67292005501952e-06,-8.20115347099915e-05,-1.94521041141371e-06,8.49229564003906e-06,-5.0809618699077e-06,4.30683924879105e-06,-6.55641697200338e-06,8.86670644995036e-06,2.36814160015086e-06,-7.20351240932615e-05,-9.93021713036057e-06,-0.00246230428054783,8.49229564003906e-06,8.20164051340555e-07,3.43863645113629e-06,-8.20115347099915e-05,-5.0809618699077e-06,-6.16767905725624e-06,-4.20763819342085e-07,-3.54367719257453e-06,3.29129625331603e-06,-2.94637584907775e-06,4.53447765647041e-06,-4.74322883015077e-06,1.02425782966264e-06,3.21571201933324e-06,-1.15760844838775e-05,3.43863645113629e-06,4.72589692090963e-06,7.95664075781133e-06,-1.06753535566995e-05,-6.91051912156126e-05,-1.5485391680059e-06,-0.00140992582730082,5.57014273638856e-06,-3.6995431136333e-06,7.95664075781133e-06,3.21571201933324e-06,2.77816030624933e-07,-1.11335618058206e-07,-3.54367719257453e-06,3.89106461096134e-06,9.84416599614235e-06,-0.00276528031879142,-1.94521041141371e-06,-0.000262255642519804,-1.94521041141371e-06,4.24279011923545e-06,-3.39048759556704e-06,0.0244339989927385,2.28312704919631e-06,4.36979587714603e-06,9.23086590276512e-07,1.12371728366867e-06,-4.87105296897994e-06,-5.79260678978955e-06,8.20164051340555e-07,-0.00682353095662158,-0.000309503754539087,9.84416599614235e-06,4.66325725412275e-06,2.28312704919631e-06,-0.00778748523144213,-3.39048759556704e-06,6.08901212117985e-07,2.98094191641951e-06,-1.94521041141371e-06,3.53622651605434e-06,2.68699231220637e-06,-5.43056676338693e-06,-4.64016074186446e-06,-0.000407687031903414
"2:192258274:G:C",-0.00201943302693319,-6.13129116393551e-05,4.49936032635989e-05,1.61806301779421e-05,-0.000230760658134876,-0.00502428891819307,7.00144534171443e-06,8.7510964625892e-05,5.63136652900198e-05,0,-0.00278739766312874,0.000417674655903255,1.99084086967005e-05,-0.000141464833760985,4.90443373193372e-05,-5.49170180601521e-05,6.08740299066213e-05,-0.000155238127060642,-2.79920740915429e-05,0.000389844543803974,8.7510964625892e-05,-1.51508570667147e-06,-0.000141464833760985,-9.58169582432333e-06,-4.22266854833708e-05,0.000417674655903255,4.90443373193372e-05,5.78166644444877e-05,1.98152222807835e-06,3.51919562984193e-05,-4.03709420071507e-05,2.99215382408846e-05,-0.000717514824644105,4.6246318899712e-05,-0.000775454787762087,-3.94275990425186e-05,9.96216389745896e-05,-4.22266854833708e-05,-6.21888055016839e-05,-0.000125880768697684,-0.00306040055750323,0.000432463280012563,1.61806301779421e-05,-0.00252749774184124,-0.000638535987953048,3.65458804241214e-05,-0.000125880768697684,-0.000353144882878631,-3.88527000438899e-06,-0.00239913397667202,3.51919562984193e-05,-5.09455033137485e-05,2.28312704919631e-06,0.000116809539712825,1.99084086967005e-05,-2.04551981335399e-05,1.99084086967005e-05,-5.40495657368467e-05,3.38527972099101e-05,2.28312704919631e-06,0.0204569661343434,-5.57748777403333e-05,-1.06834407045397e-05,-1.28510196741871e-05,4.64580596197806e-05,5.4827408003888e-05,-9.58169582432333e-06,-0.000651905394960295,9.10183449498447e-07,2.28312704919631e-06,-6.13129116393551e-05,-2.69967161514728e-05,-1.48464934923709e-05,3.38527972099101e-05,-7.3412938572659e-06,-3.65335883172335e-05,1.99084086967005e-05,-0.000759442177241887,-3.44073198448314e-05,5.19040150201988e-05,4.35882149005806e-05,1.57829422144928e-05
"2:192260077:T:G",-0.00150673408862989,-0.000128318244752457,9.07436099559789e-05,3.3067493097505e-05,-0.000518548113774386,0.00019459584006043,1.34053876266194e-05,0.000179176434499162,-0.00694854198397188,0,0.000211955559864307,-0.0017818675813519,4.02537818580129e-05,-0.000292261618006329,0.000100426494248573,0.00251936050199841,0.000123531629986573,-0.000271924691617187,-5.76493413735335e-05,-0.00179331221471823,0.000179176434499162,-5.10611826776142e-06,-0.000292261618006329,-2.04469865048296e-05,-8.68994249207944e-05,-0.0017818675813519,0.000100426494248573,0.000117556020425624,-0.000451017034105661,7.17087378765413e-05,-8.34389012682735e-05,6.14856200904512e-05,-0.000380883682136179,9.49678158743694e-05,-2.46112553972111e-05,-8.1679392930134e-05,0.000204630753652957,-8.68994249207944e-05,-0.000129912308701741,-0.000260100216193493,0.000275245869632457,-0.00224543710711345,3.3067493097505e-05,-0.00611260862786089,-0.000159106962722255,7.43363259152474e-05,-0.000260100216193493,-8.1679392930134e-05,-9.61570945356982e-06,2.17290302906292e-06,7.17087378765413e-05,-0.000304623153031258,4.36979587714603e-06,-0.000636375188403981,4.02537818580129e-05,-4.62352240271358e-05,4.02537818580129e-05,-0.000111694286371034,6.91103518626335e-05,4.36979587714603e-06,-5.57748777403333e-05,0.0334467633150597,-2.25407361229557e-05,-2.66589286956886e-05,9.35901186878141e-05,0.000111716314886934,-2.04469865048296e-05,-0.000695874777250083,-4.89959762539627e-07,4.36979587714603e-06,-0.00836302083274987,-5.57748777403333e-05,-0.00223530750613321,6.91103518626335e-05,-1.6188215155033e-05,-7.62798598179515e-05,4.02537818580129e-05,-9.46472009362154e-05,-0.000324648073842582,0.000106007932092922,8.60015999615271e-05,3.02398664260295e-05
"2:192260494:T:C",3.82736000439365e-05,-2.4635256126615e-05,1.71326198090682e-05,6.24968793694336e-06,-0.000102690740474642,-0.00306945184807894,2.82050184186033e-06,-0.0002199751471057,2.11465575343794e-05,0,-0.00244871740213437,-0.00315922553293291,7.71484301065328e-06,-6.01534111099866e-05,1.84589672036495e-05,-2.21604360906014e-05,2.28148322607424e-05,-6.63353839689407e-05,-1.110521117198e-05,-0.00314554457954586,3.19373051151928e-05,-3.72818695026922e-07,-6.01534111099866e-05,-3.67455191074839e-06,-0.00156755103680428,-0.00315922553293291,1.84589672036495e-05,-0.000115333302871612,-0.00164614818379327,-0.00270764970826409,-1.61173503041567e-05,1.14040826559858e-05,-2.38355983439575e-05,1.74152814880202e-05,-4.5784345807931e-06,-1.57093535193553e-05,3.59247265562246e-05,-1.69215039713677e-05,-2.50287061138721e-05,-5.30374760741026e-05,-0.00229965923099495,-0.00286247350690516,6.24968793694336e-06,6.74401609730424e-05,-3.09770075412885e-05,1.39398687064585e-05,-5.30374760741026e-05,-0.00594389400069684,-1.3387950446031e-06,4.59453442402946e-07,-0.00270764970826409,-0.00141264467939806,9.23086590276512e-07,-0.00241902895222523,7.71484301065328e-06,-7.61716003427892e-06,7.71484301065328e-06,-0.000964777414110607,1.29123543040066e-05,9.23086590276512e-07,-1.06834407045397e-05,-2.25407361229557e-05,0.0419702557402468,-5.02408655478348e-06,1.76813858399072e-05,-0.000153150428878313,-3.67455191074839e-06,-8.36182473653579e-05,6.12005893074752e-07,9.23086590276512e-07,-2.46352561257268e-05,-1.06834407045397e-05,-8.7851000367678e-05,1.29123543040066e-05,-2.75352025891351e-06,-1.44609981518329e-05,7.71484301065328e-06,-1.77125293614466e-05,-0.00145971872649486,1.95203723549753e-05,-5.90271909466367e-05,6.31485780289154e-06
"2:192263827:C:A",5.03057592622369e-05,-2.90816815784467e-05,-0.000472702953110193,7.71315590775146e-06,-0.000111333037124517,4.45737953045366e-05,3.44374315197626e-06,4.13836337411766e-05,2.67915542666586e-05,0,5.05465514333281e-05,-0.00198764597287315,9.53596467745399e-06,-6.79922978816805e-05,2.32822276018396e-05,-2.62252455280887e-05,-0.000622122990974638,-7.44949436146669e-05,-1.33470886165554e-05,-0.00195857877250294,4.13836337411766e-05,-4.92893790671189e-07,-6.79922978816805e-05,-4.47897512501072e-06,-2.01675825648451e-05,-0.00198764597287315,2.32822276018396e-05,2.75162103093862e-05,1.53185350626472e-06,1.67688787575671e-05,-1.92364231388353e-05,1.42063080241783e-05,-2.81747960970691e-05,2.19294863681441e-05,-0.00165209463527294,-1.87632592947296e-05,4.6978660971142e-05,-2.01675825648451e-05,-2.9527275020591e-05,-6.0422746667399e-05,6.43191144833466e-05,-0.00191143245388226,7.71315590775146e-06,9.65639541083974e-05,-3.62574865668819e-05,1.74265591850187e-05,-6.0422746667399e-05,-0.00190370623486302,-1.66318725103309e-06,5.58912898185326e-07,1.67688787575671e-05,-2.38155620913005e-05,1.12371728366867e-06,-0.00173818035442164,9.53596467745399e-06,-9.27284718166277e-06,9.53596467745399e-06,-2.57868147164331e-05,1.61181202766869e-05,1.12371728366867e-06,-1.28510196741871e-05,-2.66589286956886e-05,-5.02408655478348e-06,0.0158473567157653,-0.000438221351995338,2.60746564020309e-05,-4.47897512501072e-06,-0.00107309627140495,7.0379984062896e-07,1.12371728366867e-06,-2.90816815775585e-05,-1.28510196741871e-05,-3.17782297987179e-06,1.61181202766869e-05,-3.37099867842028e-06,-1.73124295557159e-05,9.53596467745399e-06,-2.11232897351366e-05,-1.58867809094687e-05,2.4663646358114e-05,2.10699160962946e-05,7.75352743254132e-06
"2:192263881:A:G",-0.0036637912637465,9.83164310754958e-05,-0.00485387440308038,-3.01398368982575e-05,4.71522341598529e-05,-0.000189966540661501,-0.00250835218895595,-0.000177054060759296,-0.00135283463944358,0,-0.000518372750564211,-0.00161383230309164,-3.83143424977916e-05,-0.00247378448802404,-0.00397937017960981,9.18786081784972e-05,-0.00351029788802393,-0.00514984607087055,4.85023244101157e-05,-0.00310657044098983,-0.00119818873132349,-0.00391188269318654,-0.00247378448802404,1.53569914855822e-05,7.21102100342819e-05,-0.0032634717381157,-0.00397937017960981,-0.00138761698375678,-0.00191673156323091,-6.76360618188099e-05,6.83566212362763e-05,-5.58249798192634e-05,-0.00187673010793343,-0.000462757455304441,-0.00374008081026922,6.64406102890425e-05,-0.000202597280043904,7.21102100342819e-05,-0.00176080559078873,-0.00254878636977907,-0.000302634864282503,-0.00137118968117633,-3.01398368982575e-05,-0.00118208830270383,0.000121137358833678,-7.06962058272254e-05,-0.00254878636977907,-0.00276469920025768,3.22507042049835e-06,-2.41860993366316e-06,-6.76360618188099e-05,-2.54375674826335e-05,-4.87105296897994e-06,-0.00849300360346206,-0.00296039669291837,-0.001916184918759,-0.00296039669291837,9.01433627751302e-05,-6.46197651823499e-05,-4.87105296897994e-06,4.64580596197806e-05,9.35901186878141e-05,1.76813858399072e-05,-0.000438221351995338,0.103502343013875,-0.000107996033259283,1.53569914855822e-05,-0.0027396079081603,-7.13732656354438e-06,-4.87105296897994e-06,-0.00502400811593429,4.64580596197806e-05,-0.00224671758413164,-6.46197651823499e-05,-1.99241702887321e-05,-0.0023636415658439,-0.00296039669291837,7.13711554540808e-05,-3.3925580297911e-05,-0.000101189757225839,-0.00165870029136173,-3.42947118232573e-05
"2:192265976:T:C",-0.000248544416283636,0.000116807947504682,-0.000104111613923763,-0.000944453486271257,-0.00896436890558849,-0.00116235555527577,-1.78352130868475e-05,0.00106454898976693,-0.000128160037554892,0,-0.000265876841440083,-0.0103746149794341,-4.47168036217249e-05,0.000263386025577184,-0.000108910693413122,-0.00391800873365344,-0.00014035329579265,-0.00228502298990829,5.7322506823887e-05,-0.0103833939488069,-0.000201088723556175,-2.7859691229537e-06,0.000263386025577184,1.78092567386656e-05,-0.000705093628353026,-0.0103746149794341,-0.000108910693413122,-0.000132168633624197,-0.00257397481027333,-0.00104285225144718,-0.001738490138953,0.000491716776610751,0.000112245711198611,-0.000101562222617702,2.33547940151624e-05,7.86736910578512e-05,-0.000229039616046478,8.56828786828245e-05,-0.000954759415603412,0.000236989619545547,-0.000339121869323833,-0.00948611635005125,-0.000944453486271257,-0.000516370455289739,0.000144830572655685,-0.00353437784795929,0.000236989619545547,-0.00192911337592427,3.29536204635161e-06,-2.87784735242269e-06,-0.00104285225144718,9.00639336425257e-05,-5.79260678978955e-06,-0.00050724148948067,-4.47168036217249e-05,-0.00167367111463879,-0.00126932848035466,-0.0131643833940593,-7.48671806620749e-05,-5.79260678978955e-06,5.4827408003888e-05,0.000111716314886934,-0.000153150428878313,2.60746564020309e-05,-0.000107996033259283,0.0983176404446322,1.78092567386656e-05,-0.00181202248797252,-0.00168618328869652,-5.79260678978955e-06,0.000116807947504682,5.4827408003888e-05,-0.00508060980632852,-7.48671806620749e-05,1.21180397192333e-05,7.13893295012369e-05,-4.47168036217249e-05,8.40061977172013e-05,5.71881394293428e-05,-0.000116455903314439,0.000264822461795156,-0.0015973910192848
"2:192266217:G:A",3.21398085194602e-05,-2.23771969949382e-05,1.48907563408684e-05,5.50463292636749e-06,-9.82956774944199e-05,2.89314396315632e-05,2.50068447016361e-06,2.71230176362991e-05,-0.00196668003902278,0,3.23908720956112e-05,-0.000183599589637318,-0.0036096308063307,-0.00121104784726711,1.60028430382653e-05,-0.000814854577611435,1.96647252144189e-05,-6.21865022667478e-05,-9.9653490570617e-06,-0.000195044223004537,2.71230176362991e-05,-3.1693946045408e-07,-0.00121104784726711,-0.00173188966279714,-1.52710110139509e-05,-0.000183599589637318,1.60028430382653e-05,1.87308105594752e-05,-0.00427212318734327,1.17196056717006e-05,-1.45320244060443e-05,9.97833832716566e-06,-2.1632672864591e-05,1.51177623033405e-05,-4.07845553240804e-06,-0.00390194854127568,3.0293558671346e-05,-1.52710110139509e-05,-2.27438431448235e-05,-0.00118792695306968,3.94492788702294e-05,-0.00115054937352621,5.50463292636749e-06,-0.00140828094470002,-2.82944246334793e-05,1.21628615339375e-05,-0.00118792695306968,-1.41574725454063e-05,-1.17794829890272e-06,4.084350075928e-07,1.17196056717006e-05,-0.00238586054596901,8.20164051340555e-07,-0.00460048721408324,6.78625804262367e-06,-0.00269330009818347,6.78625804262367e-06,-1.97378469808385e-05,1.12795477162919e-05,8.20164051340555e-07,-9.58169582432333e-06,-2.04469865048296e-05,-3.67455191074839e-06,-4.47897512501072e-06,1.53569914855822e-05,1.78092567386656e-05,0.0507700908966973,-0.00137851045787585,-0.00265731327384344,8.20164051340555e-07,-0.00137160529613745,-9.58169582432333e-06,-0.00134456928355142,1.12795477162919e-05,-0.00178014943728844,-0.00338053087484713,6.78625804262367e-06,-1.59821454985831e-05,-0.00250302083144938,1.6899969423001e-05,1.46353414987033e-05,-0.00253224847246347
"2:192267027:T:C",-0.00259330370697075,-0.0036232855141316,-0.00290743788329628,0.000105083373269643,-0.000986725164559665,0.000607004842320791,2.94402155445184e-05,-0.00142329934410412,-0.00173053682568991,0,-0.00263674545049852,-0.00353990472524579,-0.00190066430728386,-0.00404878150694188,-0.00724410342132131,-0.00132148041768598,-0.00325469959078095,-0.000137764406619389,-0.00019511973656261,-0.00347557764336592,-0.00183575988953066,-0.000305291691119258,-0.00404878150694188,-0.0032143322620648,-0.000295802223617692,-0.00353990472524579,-0.00724410342132131,-0.00186969719210417,8.4874563928139e-05,0.000222345183471084,-0.000289460713823075,0.000198533620450192,-0.00374481859387821,0.000302659073841305,-8.79708981535998e-05,-0.00100557341743013,-0.00218782215832558,0.000199586776137295,-0.00381676490047411,-0.00176462513435283,-0.00166166914134447,-0.00372931322436365,0.000105083373269643,-0.00454844647108477,-0.000348792816422971,-0.00810366531687734,-0.00176462513435283,-0.000286235682326996,-0.00310655159264872,4.76984958286408e-06,0.000222345183471084,-0.000149301657022427,-0.00682353095662158,-0.00907734271958915,0.000121399937299316,-0.00331244162504252,0.000121399937299316,-0.000390836932543159,-0.00241246466219014,-0.00682353095662158,-0.000651905394960295,-0.000695874777250083,-8.36182473653579e-05,-0.00107309627140495,-0.0027396079081603,-0.00181202248797252,-0.00137851045787585,0.177769735754882,-0.00817117858400795,-0.00682353095662158,-0.00750336255093309,-0.000191402797725004,-0.000818961003808294,-0.00241246466219014,-0.00301574367024315,-0.000276335920933235,-4.09775611407426e-05,-0.00408241138746224,-5.00354616885801e-05,0.000328881067082065,-0.000995103230038374,-0.00879811215757353
