"","17:18026980:A:G","17:18031005:C:T","17:18031174:T:C","17:18032024:G:A","17:18033344:C:G","17:18033534:G:T","17:18033565:C:T","17:18035019:G:A","17:18038343:G:T","17:18039459:A:G","17:18039679:C:T","17:18041507:C:T","17:18049137:G:A","17:18050888:C:T","17:18052867:T:C","17:18054453:G:A","17:18054692:G:A","17:18055903:G:A","17:18057215:C:G","17:18060875:C:T","17:18064961:G:C","17:18070278:A:G","17:18073564:C:T","17:18074160:A:G","17:18075768:T:C"
"17:18026980:A:G",0.0593629690576747,-0.00187410379592823,-0.000286644699099448,-0.00316929907522479,-0.000536136913630969,-0.000137471982136539,-0.0015184389967402,-0.00531074328312586,-8.9371192339982e-06,-0.000394640700347004,-0.0016369382638981,-0.00154129543124437,-0.00765093874902778,-0.00615674312575898,0.000155240711863236,-0.00150744630265542,-0.00721017774404675,-0.00311814498646168,-0.0076326334999326,-0.00257525248190582,-0.00197842083809352,-0.001048769399012,-0.00147013093433745,-0.00012052781812244,-0.00263437362957397
"17:18031005:C:T",-0.00187410379592823,0.0249205516409563,1.47679929787259e-05,-1.52912552575657e-05,1.65985026754356e-05,-0.0018317831167467,-0.00180961648077105,-0.00102248310544262,1.22360203391736e-06,-0.00411084477431967,4.58918955814624e-06,-0.00437439182235533,-9.43981455048259e-06,-0.000497043691616295,7.07612558681348e-06,1.79983017210006e-05,-0.00708685450721092,-2.34411076096563e-05,-0.00215660655393002,-1.42947976584651e-05,1.53309880968067e-06,-3.12885458022549e-05,-0.000157387535886677,1.34604875663413e-05,1.70719631995553e-05
"17:18031174:T:C",-0.000286644699099448,1.47679929787259e-05,0.0250314151623297,0.000134972051585969,-0.000703946017784673,-0.0011326476884479,-0.000105675024697049,-0.00414795339625407,-1.55656185931718e-05,3.44999111945299e-05,-0.00372734294337285,7.29182225289726e-05,-0.00246346449018198,-0.00107722010779776,-8.30253025991823e-05,-0.00389522773629825,-0.00340628045282276,0.000190707178245653,-0.000611126676021811,-0.00339854473780932,-1.95826523112785e-05,0.00024810758611693,-5.79240400382375e-05,-0.000343052493323448,-0.000252164027527257
"17:18032024:G:A",-0.00316929907522479,-1.52912552575657e-05,0.000134972051585969,0.0314520899007062,0.000158637507276183,-0.00277897092591584,7.0223350518539e-05,-0.00560310346795756,8.44602409610928e-06,-3.39331316716596e-05,3.58553596404576e-05,-0.00614708945657583,-6.92002158633187e-05,0.00010578433381081,5.80739983631062e-05,0.000176954791772488,-0.00106103048853079,-0.000155698887121858,-0.00841080992100363,4.17762305993108e-06,1.0615192467256e-05,-0.00251350942800244,3.81568990626135e-05,0.000121027148103359,-0.00241707792733781
"17:18033344:C:G",-0.000536136913630969,1.65985026754356e-05,-0.000703946017784673,0.000158637507276183,0.0106818620400824,-0.000915577639537979,-0.000124220571086298,-0.000966071234289601,-1.87131661899542e-05,3.9126629882702e-05,-6.32408997072176e-05,-0.000934048452573499,9.81948430851531e-05,-0.000176210624739159,-9.72549643796228e-05,-0.0003225423737101,-0.0012955774911001,0.000223969567673343,-0.000412873050359863,-9.24126232071387e-06,-2.35383157711766e-05,0.000293600905893143,-0.00405456715535379,-0.000209234402862357,-0.000648995461171253
"17:18033534:G:T",-0.000137471982136539,-0.0018317831167467,-0.0011326476884479,-0.00277897092591584,-0.000915577639537979,0.0375660577626182,-0.000103223379475104,-0.000767432524576339,-1.49646107079349e-05,-0.00812422686211267,-5.20346996237819e-05,-0.000460904279194541,8.06040150500564e-05,-0.00161360771529795,-8.0885646728035e-05,-0.000275742984324978,-0.000669643910468309,-0.00479141617789658,-0.00301327614111813,-0.00196277328552252,-0.00269282610339872,0.000230882594983939,-5.6202424843832e-05,-0.00533108014137618,-0.00107085213320168
"17:18033565:C:T",-0.0015184389967402,-0.00180961648077105,-0.000105675024697049,7.0223350518539e-05,-0.000124220571086298,-0.000103223379475104,0.0201927006457536,-0.00237011810196641,-7.49452848403109e-06,-7.47182818932046e-05,-2.72985728964059e-05,-0.00215220181736697,-0.00234163792191566,-0.00445882604578429,-4.29154458361225e-05,-0.000328363484831229,-0.00179931430452829,9.97502448152332e-05,-0.00167326083874286,-3.6995431136333e-06,-9.42896301836527e-06,0.000127861715419897,-0.00131756642929926,-9.25658427348708e-05,-0.000129951381325988
"17:18035019:G:A",-0.00531074328312586,-0.00102248310544262,-0.00414795339625407,-0.00560310346795756,-0.000966071234289601,-0.000767432524576339,-0.00237011810196641,0.0583047690151042,-0.00231661021807561,-0.000882247390478152,-0.000508152725439359,-0.00503132715908494,-0.00171325797663835,-0.00446660160988754,-0.000409377797251587,-0.00094682980031946,-0.00611751443431841,0.00038161289464389,-0.00157560668373913,-0.00465318894976541,-0.000202461965285394,-0.00367221321673394,-0.00293131806971392,-0.0023909864504752,-0.00068078234892921
"17:18038343:G:T",-8.9371192339982e-06,1.22360203391736e-06,-1.55656185931718e-05,8.44602409610928e-06,-1.87131661899542e-05,-1.49646107079349e-05,-7.49452848403109e-06,-0.00231661021807561,0.0155490600300459,2.7102684727609e-06,-3.66819194308476e-06,-1.3385348763606e-05,5.69000038819212e-06,-6.78981925652522e-05,-5.96171788025401e-06,-0.00154281487319263,-0.00257457766239622,1.1468195158848e-05,-0.00201359707614301,-4.56918383129334e-07,-1.17236798580223e-06,1.38137212335465e-05,-3.94192323227571e-06,-0.00560687656145831,-0.00137577574620096
"17:18039459:A:G",-0.000394640700347004,-0.00411084477431967,3.44999111945299e-05,-3.39331316716596e-05,3.9126629882702e-05,-0.00812422686211267,-7.47182818932046e-05,-0.000882247390478152,2.7102684727609e-06,0.0219603776115127,1.03923276615348e-05,-0.000126930289015892,-0.00264597411508749,-0.00170600473343629,1.61650979508821e-05,-0.00148180047367408,-0.000256927561286702,-5.18090964281015e-05,-0.00219224307075638,1.34687225372687e-06,3.39817594863234e-06,-6.84390822707215e-05,1.10758730968996e-05,3.13136132650271e-05,4.0333181538621e-05
"17:18039679:C:T",-0.0016369382638981,4.58918955814624e-06,-0.00372734294337285,3.58553596404576e-05,-6.32408997072176e-05,-5.20346996237819e-05,-2.72985728964059e-05,-0.000508152725439359,-3.66819194308476e-06,1.03923276615348e-05,0.0227556958093853,-0.00171945700923448,2.30930730182877e-05,-0.00884907334328222,-2.18562957279289e-05,-0.00118538492813602,-0.00244967189038281,5.10474860959675e-05,-0.0015436113893541,-7.6741128471447e-05,-4.61503013227116e-06,6.49322994004109e-05,-1.48014111820416e-05,-4.71501843319899e-05,-0.00101456663764399
"17:18041507:C:T",-0.00154129543124437,-0.00437439182235533,7.29182225289726e-05,-0.00614708945657583,-0.000934048452573499,-0.000460904279194541,-0.00215220181736697,-0.00503132715908494,-1.3385348763606e-05,-0.000126930289015892,-0.00171945700923448,0.0557904265917948,-0.000138141187189245,-0.00627463453803401,-0.000201727026979626,-0.00232554437270149,-0.00145356533485019,-0.000616734640720207,-0.000492116385045094,-0.00229192580480753,-0.00209957437604213,-0.00970698738188247,-0.00232217090634457,-0.00340026002712168,-0.00203893176719605
"17:18049137:G:A",-0.00765093874902778,-9.43981455048259e-06,-0.00246346449018198,-6.92002158633187e-05,9.81948430851531e-05,8.06040150500564e-05,-0.00234163792191566,-0.00171325797663835,5.69000038819212e-06,-0.00264597411508749,2.30930730182877e-05,-0.000138141187189245,0.0257982782832231,-0.00134188718509876,3.68752086465918e-05,-0.0022692981605541,-0.000332889444057294,-0.000103000869867031,-0.00496858590637306,2.81742871077739e-06,-6.79105416567793e-05,-0.000131997277731166,2.46129950625118e-05,7.56319633028468e-05,0.000101826045304954
"17:18050888:C:T",-0.00615674312575898,-0.000497043691616295,-0.00107722010779776,0.00010578433381081,-0.000176210624739159,-0.00161360771529795,-0.00445882604578429,-0.00446660160988754,-6.78981925652522e-05,-0.00170600473343629,-0.00884907334328222,-0.00627463453803401,-0.00134188718509876,0.0529404580539148,-0.000359007991580285,-0.00031776115812443,-0.00179792151375047,-0.00022954402821318,-0.00542564342654206,-0.00285927411747355,-0.000242319067078611,-0.000228167749082964,5.57384207171552e-05,-0.00186562105231936,-0.00309096979097934
"17:18052867:T:C",0.000155240711863236,7.07612558681348e-06,-8.30253025991823e-05,5.80739983631062e-05,-9.72549643796228e-05,-8.0885646728035e-05,-4.29154458361225e-05,-0.000409377797251587,-5.96171788025401e-06,1.61650979508821e-05,-2.18562957279289e-05,-0.000201727026979626,3.68752086465918e-05,-0.000359007991580285,0.00124963559056113,-0.000110444820278666,5.06149861241312e-05,8.32869639912914e-05,-0.000143417872226159,-2.94637584907775e-06,-7.49601251381904e-06,0.000107458979023534,-2.3481808076653e-05,-7.30841929312831e-05,-0.000101544391272412
"17:18054453:G:A",-0.00150744630265542,1.79983017210006e-05,-0.00389522773629825,0.000176954791772488,-0.0003225423737101,-0.000275742984324978,-0.000328363484831229,-0.00094682980031946,-0.00154281487319263,-0.00148180047367408,-0.00118538492813602,-0.00232554437270149,-0.0022692981605541,-0.00031776115812443,-0.000110444820278666,0.023420031100013,-0.000255027506476324,0.000248473302688623,-0.000278741783549918,-0.00180765153318596,-0.00293354137917312,-0.00120366137171857,-7.7965779230027e-05,-0.00045900642125396,-0.000338660252806378
"17:18054692:G:A",-0.00721017774404675,-0.00708685450721092,-0.00340628045282276,-0.00106103048853079,-0.0012955774911001,-0.000669643910468309,-0.00179931430452829,-0.00611751443431841,-0.00257457766239622,-0.000256927561286702,-0.00244967189038281,-0.00145356533485019,-0.000332889444057294,-0.00179792151375047,5.06149861241312e-05,-0.000255027506476324,0.05332139107177,-0.000812010816806819,-0.000393115384074605,3.95961904953168e-06,-2.84273240902522e-05,-0.00133046657721803,-0.0111162178869293,-0.00146766265370424,-0.000461090787894136
"17:18055903:G:A",-0.00311814498646168,-2.34411076096563e-05,0.000190707178245653,-0.000155698887121858,0.000223969567673343,-0.00479141617789658,9.97502448152332e-05,0.00038161289464389,1.1468195158848e-05,-5.18090964281015e-05,5.10474860959675e-05,-0.000616734640720207,-0.000103000869867031,-0.00022954402821318,8.32869639912914e-05,0.000248473302688623,-0.000812010816806819,0.0115395710796347,-0.000579364908540825,5.67348107338717e-06,1.44122226881649e-05,-0.000292160721939716,5.4170351973859e-05,0.00017193794888648,-0.00230275467596375
"17:18057215:C:G",-0.0076326334999326,-0.00215660655393002,-0.000611126676021811,-0.00841080992100363,-0.000412873050359863,-0.00301327614111813,-0.00167326083874286,-0.00157560668373913,-0.00201359707614301,-0.00219224307075638,-0.0015436113893541,-0.000492116385045094,-0.00496858590637306,-0.00542564342654206,-0.000143417872226159,-0.000278741783549918,-0.000393115384074605,-0.000579364908540825,0.0560363014929686,9.31882007915164e-06,-0.00197470476980133,-0.00644233326968635,-0.00161137187862703,-0.000998987568522125,-0.00150159225895763
"17:18060875:C:T",-0.00257525248190582,-1.42947976584651e-05,-0.00339854473780932,4.17762305993108e-06,-9.24126232071387e-06,-0.00196277328552252,-3.6995431136333e-06,-0.00465318894976541,-4.56918383129334e-07,1.34687225372687e-06,-7.6741128471447e-05,-0.00229192580480753,2.81742871077739e-06,-0.00285927411747355,-2.94637584907775e-06,-0.00180765153318596,3.95961904953168e-06,5.67348107338717e-06,9.31882007915164e-06,0.0196407772462717,-5.76120484652165e-07,6.83025243564117e-06,-1.94521041141371e-06,-6.69260055286003e-06,-9.69647521831263e-06
"17:18064961:G:C",-0.00197842083809352,1.53309880968067e-06,-1.95826523112785e-05,1.0615192467256e-05,-2.35383157711766e-05,-0.00269282610339872,-9.42896301836527e-06,-0.000202461965285394,-1.17236798580223e-06,3.39817594863234e-06,-4.61503013227116e-06,-0.00209957437604213,-6.79105416567793e-05,-0.000242319067078611,-7.49601251381904e-06,-0.00293354137917312,-2.84273240902522e-05,1.44122226881649e-05,-0.00197470476980133,-5.76120484652165e-07,0.0122859769071271,1.73645310495019e-05,-4.96022646601091e-06,-1.70365526503957e-05,-2.47075221366799e-05
"17:18070278:A:G",-0.001048769399012,-3.12885458022549e-05,0.00024810758611693,-0.00251350942800244,0.000293600905893143,0.000230882594983939,0.000127861715419897,-0.00367221321673394,1.38137212335465e-05,-6.84390822707215e-05,6.49322994004109e-05,-0.00970698738188247,-0.000131997277731166,-0.000228167749082964,0.000107458979023534,-0.00120366137171857,-0.00133046657721803,-0.000292160721939716,-0.00644233326968635,6.83025243564117e-06,1.73645310495019e-05,0.0287491022600896,6.87507325736192e-05,0.000224139265919909,-0.0034828508230591
"17:18073564:C:T",-0.00147013093433745,-0.000157387535886677,-5.79240400382375e-05,3.81568990626135e-05,-0.00405456715535379,-5.6202424843832e-05,-0.00131756642929926,-0.00293131806971392,-3.94192323227571e-06,1.10758730968996e-05,-1.48014111820416e-05,-0.00232217090634457,2.46129950625118e-05,5.57384207171552e-05,-2.3481808076653e-05,-7.7965779230027e-05,-0.0111162178869293,5.4170351973859e-05,-0.00161137187862703,-1.94521041141371e-06,-4.96022646601091e-06,6.87507325736192e-05,0.0250917556159544,-5.08428916639048e-05,-7.14643768047196e-05
"17:18074160:A:G",-0.00012052781812244,1.34604875663413e-05,-0.000343052493323448,0.000121027148103359,-0.000209234402862357,-0.00533108014137618,-9.25658427348708e-05,-0.0023909864504752,-0.00560687656145831,3.13136132650271e-05,-4.71501843319899e-05,-0.00340026002712168,7.56319633028468e-05,-0.00186562105231936,-7.30841929312831e-05,-0.00045900642125396,-0.00146766265370424,0.00017193794888648,-0.000998987568522125,-6.69260055286003e-06,-1.70365526503957e-05,0.000224139265919909,-5.08428916639048e-05,0.0221177572313964,-0.000274599803035791
"17:18075768:T:C",-0.00263437362957397,1.70719631995553e-05,-0.000252164027527257,-0.00241707792733781,-0.000648995461171253,-0.00107085213320168,-0.000129951381325988,-0.00068078234892921,-0.00137577574620096,4.0333181538621e-05,-0.00101456663764399,-0.00203893176719605,0.000101826045304954,-0.00309096979097934,-0.000101544391272412,-0.000338660252806378,-0.000461090787894136,-0.00230275467596375,-0.00150159225895763,-9.69647521831263e-06,-2.47075221366799e-05,-0.0034828508230591,-7.14643768047196e-05,-0.000274599803035791,0.0237641710281933
