"","15:59429111:G:A","15:59429160:G:A","15:59429565:G:C","15:59430905:T:G","15:59431200:G:A","15:59432750:G:C","15:59434181:T:C","15:59440141:G:A","15:59445399:T:G","15:59446659:C:T","15:59450079:T:G","15:59451518:C:T","15:59453535:C:T","15:59453681:T:C","15:59455272:C:T","15:59457005:G:C","15:59457813:G:A","15:59458442:A:G","15:59462897:G:A","15:59464428:C:T","15:59464896:G:A","15:59466859:A:G","15:59467427:G:C","15:59469913:A:C","15:59470217:T:C","15:59471158:C:T","15:59472752:T:C","15:59476088:A:C","15:59477398:G:A","15:59478262:T:C","15:59478564:A:C","15:59480141:G:A","15:59482352:C:T","15:59484914:C:T","15:59486917:T:C","15:59492850:G:C","15:59493553:A:T","15:59494067:C:T","15:59494987:T:C","15:59495610:C:G","15:59496564:C:T","15:59498871:G:A","15:59500970:C:T","15:59502335:G:C","15:59503065:G:A","15:59503103:T:C","15:59503235:C:A","15:59504677:C:T","15:59505338:A:T","15:59505888:G:A","15:59507406:A:T","15:59507623:C:T","15:59507750:G:A","15:59508080:C:A","15:59508224:A:G","15:59508252:T:C","15:59508613:A:T","15:59510888:C:T","15:59513932:G:C","15:59517995:A:G","15:59518488:T:C","15:59519133:C:A","15:59521281:C:G","15:59523415:G:A","15:59523608:A:T","15:59528541:T:A","15:59529529:C:A","15:59529827:G:T","15:59529852:C:T","15:59531818:T:C","15:59545801:C:G","15:59547489:T:C","15:59548847:C:T","15:59550971:G:A","15:59554758:C:T","15:59556509:G:T","15:59558356:G:A","15:59558984:C:A","15:59559128:A:G","15:59563439:A:G","15:59565007:T:C","15:59566385:C:T","15:59567447:A:C","15:59567450:T:C","15:59567954:G:A","15:59568113:T:C","15:59569124:C:T","15:59570772:A:G","15:59570885:C:T","15:59571807:C:G","15:59572001:G:T","15:59572027:G:A","15:59580229:C:T","15:59585013:C:T","15:59585311:A:T","15:59585713:C:A","15:59586609:T:C","15:59589234:G:A","15:59591079:G:T","15:59592551:C:T","15:59592870:C:T","15:59593071:T:C","15:59596522:G:A","15:59596791:G:A","15:59597474:C:T","15:59599807:T:G","15:59600642:G:A","15:59601462:C:T","15:59601798:C:T","15:59605968:A:G","15:59606171:C:G","15:59606507:C:T","15:59606586:G:A","15:59606956:A:G","15:59607120:A:G","15:59608741:A:G","15:59608776:C:T","15:59612038:T:C","15:59613540:A:T","15:59616308:T:C","15:59621846:G:A","15:59624166:G:A","15:59624357:A:G","15:59625186:T:C","15:59626398:T:C","15:59627314:G:A","15:59628784:G:C","15:59630051:G:A","15:59632035:T:C","15:59632249:T:C","15:59632598:T:C","15:59634725:T:C","15:59635116:G:C","15:59643246:C:A","15:59644390:G:A","15:59646991:T:C","15:59651525:A:T","15:59651556:C:T","15:59652728:T:G","15:59657748:G:A","15:59658608:C:T","15:59658696:G:A","15:59661404:C:T","15:59664497:T:C"
"15:59429111:G:A",0.331626409692292,-0.00442970341832405,-0.00116880416352849,0.000117984561369688,-0.00401317825013958,-0.00324546794564284,0.0001065766842272,-0.000124954181201176,-0.00342197953635459,-0.000759986279980751,-0.00162400118522354,-0.000224265485664787,-0.00334665316426186,0.000143768481173367,-0.000101433324939393,-0.000165902960278963,-0.00469319914952315,-0.000523860112590313,0.000102211802035512,-0.00630599333593285,-0.00919570106725809,-0.000676531948188952,1.05596433686017e-05,0.000153743151525276,-0.00118109307131942,-0.000362083076552722,8.73809229533506e-05,-0.00382905152740598,-0.00270433073847087,-0.0011138039671641,-0.00255100913820083,-0.00895825989239452,0.000153743151525276,-0.00184899003085404,-0.000132079342749947,-0.00247368485974953,-0.00666282047379019,-0.000252273543527082,-0.00207705826539772,-0.000146671346083593,0.000134879902290663,-0.000362083076552722,-0.00364741173073213,-0.00245098651444575,-0.00266305639818132,-0.00601679850142478,-0.000146671346083593,1.49243805225296e-06,-0.00259821672807625,-0.000246322409033439,-0.00342197953635459,0.000282324371425169,-0.00300713302537048,-0.00144794473990739,-0.0120637991975183,-0.000983728517907956,-0.00200170852288117,-0.00064037813411888,-0.000621194315350238,-0.000162611320552841,-0.00285979685420479,-6.2666923565935e-05,-0.00185944583600994,-0.00360483888807117,-0.0018722724821183,-0.00205942892581934,-0.00566745416677428,-0.000297647704941895,4.61867667578275e-06,-0.000111606730632374,-0.00200170852288117,-0.000111627189645525,-5.02018514501046e-05,-0.00341825043881805,-0.00514377024353685,-0.00393969878194467,-0.00161869149957194,-0.00314255871236035,-0.00415790613041089,-0.00307523770390361,-0.000362083076552722,-0.000253599685691164,-0.000807837692810232,9.45119804303118e-05,-0.00406300864321185,-0.00493658249933482,-0.00174190323212908,-0.00471367022269931,-0.000395102603133246,-0.00176926818064471,-0.00617510702016499,-0.000133448255166257,-0.000511130879613297,-0.00114151663086393,-0.00691076760257658,-0.00182792612044658,9.74857908069282e-05,-0.00570634502656375,-0.00589167830495496,-0.00120079107290394,-0.0011639413413107,0.000705795433940892,-0.00476562923987967,-0.000338759581910431,-0.00115243649653074,-0.00215609797294203,-0.000223963957110662,-0.00255960887913753,-0.00126252015418338,-0.0037154420542076,0.000415535183443616,-0.00404693835496728,-0.00195314138404123,-0.0120284941481623,-0.00476761861113673,-0.00504425298059452,-0.000201822526053164,-0.000222340179431235,-0.00248708335931358,-0.000336941920259015,-0.00218461533535308,-0.00153574820412405,-0.00568771513799771,0.000558847966981801,-0.000722080001975378,-0.00587622225149298,-0.00628455520100069,7.9201832282827e-05,-0.00127057236097272,-0.000549750139271943,-0.0059313627350619,-0.00303826397482343,-6.43759620873041e-05,-0.00767819851571749,-0.000141567103219664,-0.00467494074284458,-0.00743424040288554,-0.00218461533535308,-0.00305323387909695,-0.00188547603307043,-0.00568814500479498,-0.000662866732705325,-0.00593788276820817,0.000429814429737441
"15:59429160:G:A",-0.00442970341832405,0.452398185848624,-0.00590773775271991,0.000186612552186105,0.000442344755133384,-0.000937911963860394,-0.00185376926440739,-0.000247866564139443,-0.000708445049009576,-0.00639398387781931,-0.0093924528471101,-0.00487300378508504,-0.00373212509449505,0.000176770293775164,-0.00151812892390257,-0.000279809564355915,-0.0032331996587347,-0.0128369438187415,-0.00143849743821445,2.58002790185508e-05,-0.00512027650129987,-0.00230164320973136,-0.00127045168155426,-0.00678351560691981,-0.00198012464918129,0.000176770293775164,-0.00357840538238463,-0.00569122578302172,-0.000147027604134653,-0.00015709536394537,-0.00320152679408103,-0.00567828564120987,-0.00678351560691981,-0.00232325062685002,0.00086309474562718,-0.0032798987720053,-0.0074422106598937,-0.000474520703556358,-0.000312819747302129,0.000107167218647675,-0.00137403040078476,0.000176770293775164,-0.000143718882484656,-0.0013458828744719,-0.00652846025741205,-0.00976351802001307,0.000107167218647675,-0.00399549674008526,-0.00825480484943286,-9.03672287018153e-05,-0.000708445049009576,-0.000376745195421968,-0.00979348446550965,-0.00148379469983517,-0.00197854203033998,-0.00254662583211829,-0.00152033744025637,-0.00278173097921108,-0.00359924205070783,-0.00208100920670606,-0.00373869492723822,0.000492132084576546,-0.00810607857947376,-0.00368041815451914,-0.00423281241200169,-0.00246406094645923,-0.00361075185095672,-0.000987670206004321,-2.37758949079847e-05,-0.006304877520388,-3.41435616544317e-05,-0.00260797678166291,-0.00456673225708393,-0.00074671244554958,-0.00235904819689825,-0.011794086535819,-1.7519187296422e-05,-0.0020853838877839,-0.00276598918093107,-0.000681182347537224,0.000176770293775164,-0.00174918082654951,-0.00701126035842758,-0.00133508740071253,-0.0075665365886719,-0.00427089997820396,-0.00171732775093858,-0.0087171382529081,-1.32701495925147e-05,-0.000656909432414476,-0.00157172963822116,-0.00220910000947994,-0.000856442895121212,-0.000801077352774904,-0.00210600620611778,8.8531689137028e-05,-0.00167638829261563,-0.00102150840525805,-0.00756108788455823,-0.00738852277784652,-0.00558411584668228,0.000264008103993518,-0.00162194660902415,-0.00207417821767741,-0.00591850732260069,-0.00431149264272124,-0.00361698732201354,-0.00435903944630978,-0.00155092482134167,-0.00204901936603186,0.000492132084577435,-0.00206298285779427,-0.00733372336167948,-0.00575683790007631,-0.00163579223411503,-0.000265713904107123,-0.00331997962680397,-0.00200233784101966,-0.000836621881156852,-0.00502115646933277,-0.000937911963860394,-0.00239032164101616,-0.00403887335768793,-0.00303216786360139,-0.00539996467053205,-0.0101238916280804,-0.00881511184879313,0.000335535153055844,-0.00531026016423208,-0.00491459482292722,-0.00362097192893485,-0.00223906595530865,-0.00354278367185934,-0.00886021419059224,-0.00531198156759238,-0.00677048277078152,-0.00601434626230235,-0.000937911963860394,-0.000329746830504796,-0.00375220706211188,-0.00948926528234884,-0.00216798070223323,-0.00514735911468867,-0.00232802134199606
"15:59429565:G:C",-0.00116880416352849,-0.00590773775271991,0.084137765951672,2.22336970852055e-05,5.16011890292489e-05,1.48369395649439e-05,-0.000681363029393367,1.3361459243022e-05,-2.62252455280887e-05,-7.08244189526752e-05,-0.00136536129334974,-3.33176077056407e-05,-2.80794073237445e-06,7.11818869802983e-06,2.36761560943322e-05,3.72050663735024e-05,2.85442108349798e-06,-3.92797764359187e-06,2.29509249436433e-05,1.53701203799983e-05,-0.000169348783240153,-0.00616099051294583,8.92194438861793e-06,1.53701203799983e-05,4.45737953045366e-05,7.11818869802983e-06,1.02097748033714e-07,-0.00195224217461121,-9.22478581433239e-06,-6.8899391917121e-05,-0.00100023019291129,-0.00551727735540997,1.53701203799983e-05,2.29737637065242e-05,4.22425608839205e-05,-0.000894934174373141,-0.00590407696937945,-1.1842850468291e-05,8.92194438861793e-06,-1.73124295557159e-05,1.60546742025147e-05,7.11818869802983e-06,1.54741757896204e-05,1.14177683450123e-05,3.4105659272754e-05,-0.00588336237721521,-1.73124295557159e-05,3.04949665181908e-05,-3.70721287819009e-05,3.44374315197626e-06,-2.62252455280887e-05,1.42063080241783e-05,-1.87632592947296e-05,-0.00523666137778989,-0.00534079055322856,-3.40370301499249e-05,8.31437497694765e-06,-5.42261765570373e-05,8.31437497694765e-06,1.12371728366867e-06,-0.0053589829949523,2.12635944105699e-05,-0.00156146876021257,-0.00511449204781833,-0.0048800093496455,-5.02408655478348e-06,4.69786609702538e-05,-2.44422457136295e-05,5.58912898185326e-07,3.44374315197626e-06,8.31437497694765e-06,-1.78013482550199e-05,2.27137522479381e-06,5.32652378506526e-05,3.44374315019991e-06,-0.00168177056781715,1.54741757896204e-05,1.48369395649439e-05,7.11730769964447e-06,3.67604289106538e-05,7.11818869802983e-06,8.92194438861793e-06,3.67604289106538e-05,-2.66589286956886e-05,-2.53435580557237e-05,-2.66589286956886e-05,-2.57868147164331e-05,-0.00433465026147228,-4.47897512501072e-06,1.59824930605623e-05,-2.9527275020591e-05,6.66806492617411e-05,-0.00478252645412347,3.4105659272754e-05,1.12371728366867e-06,1.61181202766869e-05,-3.12593819105089e-05,-5.34540050383114e-05,-7.61011046055415e-05,-6.27535666612999e-05,-4.05150432021273e-05,-2.70879407393565e-05,-1.82849292738041e-05,-3.92797764359187e-06,2.36761560916676e-05,-0.000798437979289801,-4.08765505639508e-05,1.90238033219714e-05,-3.78680284267574e-05,-0.00547943724915623,2.12635944105699e-05,-0.00011251513354793,8.66110947024268e-05,-5.92771907008682e-05,7.71315590775146e-06,5.16011890292489e-05,-0.00183693814963792,4.86245283237707e-05,-9.22478581433239e-06,-6.0148229869661e-05,1.48369395649439e-05,-1.78013482550199e-05,-0.000129166028228767,2.96980217022735e-05,3.80012468816915e-05,0.000176039807264772,2.67915542657704e-05,2.82892671785717e-05,-1.1842850468291e-05,3.04134415651802e-05,-8.68369192463803e-06,5.86585363926417e-06,5.58912898185326e-07,-5.04530347580356e-05,-6.0970229984747e-06,0.000157975979925951,-0.00160123573412552,1.48369395658321e-05,1.0156538506223e-05,-4.01495150139652e-05,6.29911669669525e-05,2.32822276018396e-05,0.000162328652717036,2.2602327941712e-05
"15:59430905:T:G",0.000117984561369688,0.000186612552186105,2.22336970852055e-05,0.166716000094133,-0.000223651092786881,-5.87150979480811e-05,-0.00156625825041168,-5.57618488778999e-05,9.18786081776091e-05,-0.000105344253670481,-4.89096708609082e-05,0.000114942703536514,-0.00203426789408745,-2.74908600426116e-05,-0.00241667295458026,4.82499146094995e-05,-0.00242169934066983,1.29995443218789e-05,-9.68738757363141e-05,-0.00172476747309869,-0.00107995203610445,-5.57618488778999e-05,-3.55507906322217e-05,-0.00239150021976009,-0.000521296457279163,-2.74908600426116e-05,-0.00500012565579944,-0.000391507001688218,-0.00214374578301957,-0.00267749862792055,-0.00263701064808508,-0.000626803852778135,-0.00239150021976009,-9.44730728322796e-05,7.61058858760322e-05,-0.00279622336322305,-0.00263273483751769,4.22837452704883e-05,-0.00155749587777176,-0.00381372641058952,-0.00161225931889941,-2.74908600426116e-05,-6.16464057694444e-05,-0.00167155510918615,-0.000143771387339342,-0.00251607948809252,-0.00381372641058952,-0.00547735202096877,0.000124314196989772,-1.50333877408926e-05,9.18786081776091e-05,-5.58249798201516e-05,6.64406102890425e-05,-0.00216211259146615,-0.00676500288969839,-0.00811001695178604,-0.00346995551577667,-0.000415506945789623,-3.28262214708275e-05,-4.87105296897994e-06,-2.17189349687175e-05,-8.50167177768313e-05,-0.000885862083912503,-0.00252267668687267,-0.00140131478214922,1.7681385839019e-05,-0.00020259728004568,-0.00263701064808508,-2.41860993455134e-06,-1.50333877408926e-05,-3.28262214708275e-05,-0.001011765237525,-0.00193966530950096,-0.000232642255044269,-1.50333877417808e-05,-0.000910157386584398,-0.000568135338586906,-5.87150979480811e-05,-0.00360832916167286,-0.000153447720393274,-2.74908600426116e-05,-3.55507906322217e-05,-0.000655161223204637,-0.000756474586047773,-0.0036069682369666,9.35901186878141e-05,9.01433627742421e-05,-0.00140959905360649,1.5356991484694e-05,-6.8556818789034e-05,-0.0015749667679934,-0.000284356678596609,-0.00377811948004414,-0.00316855802681548,-4.87105296897994e-06,-6.46197651832381e-05,0.000106924017644339,0.000174690954409584,-0.00471371879532656,0.000202440696812189,-0.00382832221698237,-0.000193239113653654,6.44977361563548e-05,-0.00215893042781978,0.000136702399065491,-0.000213704674298043,-0.000600897846813275,-0.00460137073595401,-0.00149622398213456,-5.10243464812987e-06,0.000140109815870204,-0.000311638834532779,-4.54697590317465e-05,-0.00152970769383121,-3.01398368991457e-05,-0.000720796378291588,-0.00378741342652766,-0.00396004042218401,-6.20598176048759e-06,-0.00375352340625845,-5.87150979480811e-05,6.25274413517118e-05,-0.00247157938736198,-0.00296280085835932,-9.44428080922322e-05,-0.00132689840522415,-0.000111475597212696,0.000119576021742951,4.22837452704883e-05,-0.000125447437573811,-5.78190177513704e-07,-2.24681501457269e-05,-2.41860993455134e-06,-0.00460385742242142,-0.00174765482052663,-0.000533638024849736,-0.00372714576410438,-5.87150979480811e-05,-0.00273802014177615,-0.00098115107008212,-0.00122174152258836,-9.45801416314396e-05,-0.000643646548792454,-0.0037455270427289
"15:59431200:G:A",-0.00401317825013958,0.000442344755133384,5.16011890292489e-05,-0.000223651092786881,0.145801348176385,-0.000136956928708187,-0.000421347361380775,-0.00136264231157401,0.000220914892186563,-0.000187063777111085,-0.000110723424535664,0.000279508235752068,1.33257508325713e-05,-6.44631284769659e-05,-0.000240760323017675,-0.0003677746468016,-3.30708170412919e-05,2.63977220473777e-05,-0.000232149860252662,-0.0050226114792693,-0.00484715585219764,-0.00504521282973691,-8.53529382576212e-05,-0.00145776860361391,-0.000425526035225943,-6.44631284769659e-05,-2.08224619457908e-05,-0.000875519563470206,-0.00437432561023066,0.000550777772137856,0.000199706333848582,-0.00459225768811766,-0.00145776860361391,-0.00153818185765608,-0.000397773762322196,0.000259739784264745,-0.00485598280194477,9.79564053018578e-05,-8.53529382576212e-05,0.000139721465989062,-0.000168956208347559,-6.44631284769659e-05,-0.000144358093833397,-0.000114424398897306,-0.000330785496863939,-0.005474958026082,0.000139721465989062,-0.00030430013563798,-0.00383867580008879,-3.99300909821321e-05,0.000220914892186563,-0.000129644859882205,0.000156809127962454,-7.54932374391615e-08,-0.00809162046909062,0.000342589894611223,-0.000373003579341891,-0.000728160066404193,-0.000373003579341891,-1.29891209432742e-05,-0.00264419854608722,-0.000195555831117744,-0.00639825880418599,-0.000258325248878144,-0.000743019581277871,3.91523996228216e-05,0.000466005675008319,0.000199706333848582,-6.45564750012539e-06,-0.000746655608205415,-0.000373003579341891,0.00014548743038123,-2.62952388085935e-05,-8.84088237107505e-06,-3.99300909830202e-05,-0.00503969147132555,-0.000144358093833397,0.000280310004135309,-0.000595166929150182,-0.000347048012651285,-6.44631284769659e-05,-8.53529382576212e-05,0.000738597766980043,0.000226057752790609,-0.00356843952090902,0.000226057752790609,0.000215709481725668,0.000423900304766356,-0.00110637316206752,0.000260056971460365,0.000233606615712922,-0.000812779969415978,-0.00108297438395866,-0.000409996841246318,-0.00107064749299024,-0.000151849991945063,0.000254643546079514,-0.00146617616670586,-0.0141142084335231,0.000514316920734004,0.000338146295820074,0.000231139183692441,0.000151182889510437,2.63977220473777e-05,-0.000240760323019451,-0.00153366769609953,0.000342589894610335,-0.0144275776188474,0.000305468227224992,-0.00075192290904269,0.00117634488895746,-0.0040903904792895,-0.00223997122043951,-0.00637366183500987,-0.000174367098187744,0.000153699080295056,-0.00129152192383852,-0.00621443784257369,6.7293680574565e-05,-0.00121413601386688,0.000280310004135309,0.00014548743038123,0.000976465002195503,-0.000278718089663954,-0.000596320305682241,-0.00192622625990335,-0.000580580107018669,-0.000262206890871752,-0.00164791951804055,-0.000287127152262201,6.09292532871564e-05,-0.000716816682625243,-6.45564750012539e-06,-0.00188988695537606,5.16011890292489e-05,-0.00207528101031862,2.99773323453323e-05,0.000280310004135309,-0.00267088768466373,0.000333648574691203,-0.000412183376448993,-0.000219104239470802,-0.0015554177613879,-0.000211158612349216
"15:59432750:G:C",-0.00324546794564284,-0.000937911963860394,1.48369395649439e-05,-5.87150979480811e-05,-0.000136956928708187,0.0571784126130082,-0.000114151818811692,-3.53453022245986e-05,6.28309228893897e-05,0.000155931153658528,-0.000913351637379378,7.93276125454767e-05,5.81894965989704e-06,-1.7903192986779e-05,-0.000698816386732304,-9.86709269659158e-05,-7.8693623493109e-06,8.89737239795352e-06,-6.07646539148021e-05,-0.00244081840981902,-0.00118409035350897,-3.53453022245986e-05,-2.29167140259889e-05,-0.000890754858967391,-0.000117394337121546,-1.7903192986779e-05,-2.21586866810952e-06,0.000790397362747441,-0.00241616379781462,0.000157584307205028,5.80157967826622e-05,-0.00120679069239316,-0.000890754858967391,-6.48289262548118e-05,-0.000110523954089281,7.49119668119747e-05,-0.00112668747787126,2.84777748458254e-05,-2.29167140259889e-05,4.11260322605855e-05,-0.00088760159187018,-1.7903192986779e-05,-3.95673837489952e-05,-2.98881925138161e-05,-8.96294620922333e-05,-0.00123020791423301,4.11260322605855e-05,-0.000708192524059292,8.65114953478852e-05,-9.5004362927753e-06,6.28309228893897e-05,-3.60093574531817e-05,4.50599635222204e-05,-0.00124356422041849,-0.00256045859646648,9.68042185069962e-05,-2.12256641871633e-05,0.000121308662306419,-2.12256641871633e-05,-0.00274071966921774,-7.83596299669398e-06,-5.43214606532061e-05,-0.00326335960440272,-6.70737713681646e-05,4.06144364726302e-05,1.19025076772417e-05,-0.000207717787762185,5.80157967826622e-05,-1.53685808168547e-06,-9.5004362927753e-06,-2.12256641871633e-05,4.24531527150052e-05,-6.25781156138316e-06,3.6672247889058e-05,-9.50043629543984e-06,-0.00316321847938017,-3.95673837489952e-05,-3.77777961624304e-05,-1.97174599501082e-05,0.000318427682933553,-1.7903192986779e-05,-2.29167140259889e-05,-9.58713130891908e-05,6.3999261046277e-05,6.04522241394179e-05,6.3999261046277e-05,6.16486606714872e-05,0.000122259172501415,1.04089365695614e-05,-0.00215074912686752,6.90814758383951e-05,-0.000181580930315839,5.42482353678153e-05,-8.96294620922333e-05,-3.0918953148884e-06,-4.13785014012902e-05,7.37743505725419e-05,0.000123967478951492,-0.00243386238737564,0.000145365439935041,9.58298553621617e-05,6.51539195457573e-05,4.37643684652045e-05,-0.00124346562982591,-6.28406075300347e-05,0.000107790182624079,9.68042185069962e-05,0.000109307884136101,8.8671879978186e-05,-0.00238361953744981,-5.43214606523179e-05,-0.00220113469529615,-0.00154154816892405,-0.0023087613182371,-1.95546078778364e-05,-0.000136956928708187,-3.16847969470402e-05,-0.000129426193659299,2.13333900900281e-05,0.000138064020958062,-3.77777961624304e-05,4.24531527150052e-05,0.000279191649975807,-7.68870400706945e-05,-0.000101004465538956,-0.00206768510679378,-7.00847622265854e-05,-7.28425278460065e-05,2.84777748458254e-05,-7.89461959671556e-05,1.9851576788632e-05,-1.6227227409793e-05,-1.53685808168547e-06,-0.00124082034318107,1.48369395649439e-05,-0.00129014264245964,-0.00662236325698551,-3.77777961624304e-05,-2.63602453181022e-05,9.48438719969857e-05,-0.00017019077367042,-6.00539304391745e-05,-0.0011144210800822,-5.81201300686729e-05
"15:59434181:T:C",0.0001065766842272,-0.00185376926440739,-0.000681363029393367,-0.00156625825041168,-0.000421347361380775,-0.000114151818811692,0.148066450395583,-0.00291294058588587,0.000181883333853605,-0.000735217128068122,-0.000892024962995563,0.000229244513406002,-0.00246237123167248,0.00205388993281996,-0.000252778517443986,-0.00224311013790413,-2.65421623986128e-05,2.29470644272922e-05,-0.000192438265488093,-0.0015260879086938,-0.00334553672158711,-0.00573394231630253,-7.05166270025259e-05,-0.00163340849745452,0.00121089857398982,-5.35980392522006e-05,-0.00241596266270871,-0.000153213686676423,-0.0018529874243578,0.000445785621519867,-8.63179070860198e-05,-0.00262090099614509,-0.00163340849745452,-7.34796929036108e-05,0.00298223339870773,-0.00011950116645032,-0.00222125454024891,8.16421448366356e-05,-0.00132861112434579,0.00011657695514522,-0.000177944572018696,-5.35980392522006e-05,-0.000120203964542043,-0.00298471527780642,-0.000277621343321321,-8.17789979894457e-05,0.00011657695514522,-0.000305958109476201,-0.0072588528697981,-3.20624411225268e-05,0.000181883333853605,-0.000108178267830716,-0.00170281158640861,-0.000985364910801145,-0.0029593049887211,-0.000712713899187811,-6.48034533954345e-05,-0.00425452950066862,-6.48034533954345e-05,-1.04104686862172e-05,-5.9892221478286e-05,0.00280592748215724,-0.0011209091878297,-0.00160293452903293,-0.00222466182301684,3.30997204489591e-05,-0.000384664128196377,0.000165538721129899,-0.00450538808026835,-3.20624411225268e-05,-6.48034533954345e-05,-0.00229002702176473,-2.10943392717766e-05,-0.000438569301439706,-0.00136933830337949,-0.00062836884427897,-0.000903379910264235,-0.000114151818811692,-0.00310267860975078,-0.000292618315903326,-5.35980392522006e-05,-7.05166270025259e-05,0.000743055103807677,0.000185838646906689,0.000173817739679727,0.000185838646906689,0.000177876698232993,-0.00371915747725904,2.80566722166142e-05,-0.00283716769078346,-1.70858510388783e-05,-0.00229873853358598,-0.00439144296004734,-0.000277621343321321,-1.04104686862172e-05,-0.00107021804048912,-0.00241063982976097,-5.58024008592284e-05,-0.00262722226093715,0.000415638843890953,0.000276307582809387,0.0001897436125331,0.000125519282462072,2.29470644272922e-05,1.31954798661127e-05,-0.00144608298448734,-0.000779844575478528,-4.85280985200731e-05,-0.00169275276562697,-0.00116869152324295,0.000325000819969112,-0.00469624701430416,0.000478979463831131,-0.000232378088857566,-5.9164398073186e-05,-0.000653749530248326,-0.00622130898751116,-0.00101054379841869,-0.00021518479777427,-0.00227250193969919,-0.000114151818811692,0.000121077542693193,-0.00084748012133673,-0.00141077396640821,-0.000971849253454948,-0.00630964993254635,-0.0032513586659233,0.00027808036764565,-0.00197049910664227,-0.000797268842478438,-0.00180938818777232,5.00669421441557e-05,-5.1717144406993e-06,-0.00624604936031403,4.29912395301102e-05,-0.00349903522352069,-0.0022682300368313,-0.000114151818811692,-0.00309828633406095,0.000272933261527442,1.20460640866682e-05,-0.000183193349815092,-0.00417595679939797,-0.00497683235002633
"15:59440141:G:A",-0.000124954181201176,-0.000247866564139443,1.3361459243022e-05,-5.57618488778999e-05,-0.00136264231157401,-3.53453022245986e-05,-0.00291294058588587,0.150030620312653,5.4431856597148e-05,-0.00507550402526391,-0.000161681816591042,6.77710256100639e-05,-0.00217554287347088,-1.65078928855422e-05,-5.9861813403117e-05,-9.64190805499143e-05,-7.16395971611661e-06,8.09420638336888e-06,-0.00161308571437235,-3.84185855422103e-05,-0.000189199586027033,-0.00253853284485306,-0.000101661068946157,-0.00384603578703846,-0.000116107404020127,-1.65078928855422e-05,-1.90920633880154e-06,-0.000214562248271655,1.91948211689663e-05,-0.00124922474107336,5.05261349070807e-05,-3.05052763001079e-05,-0.00384603578703846,-0.0006980542526005,-0.00010879422802379,6.43100610915326e-05,-2.26615155782817e-05,2.5390065829356e-05,-2.11929402720301e-05,-0.00177897162449359,-4.02918253836759e-05,-1.65078928855422e-05,-3.7064779569107e-05,-2.77711012124371e-05,-0.00131619701748065,-7.76873441132864e-06,-0.00177897162449359,-7.79391980199051e-05,-0.00165486661963943,-0.00186439236799441,5.4431856597148e-05,-3.36508566860516e-05,-0.00149971193456455,-0.00204472376840492,-0.0023251421954642,8.1440055897275e-05,-1.96084147026099e-05,-0.00905073841966431,-0.00348258597218898,-2.80335034918977e-06,-0.00526325532250116,-5.14397592494831e-05,-0.00485972737495866,-6.40905108122425e-05,3.60952766955691e-05,-0.00206031587250699,-0.000405148162577973,5.05261349070807e-05,-1.39159006717904e-06,-0.00241621737758013,-1.96084147026099e-05,3.74454365870136e-05,-5.6890925952402e-06,-0.000880296210065801,-8.66076817374051e-06,-0.00437693881072576,-0.00108480745465478,-3.53453022245986e-05,-2.3697063983974e-05,-9.34556664491382e-05,-1.65078928855422e-05,-2.11929402720301e-05,-9.345566644825e-05,5.53738211754862e-05,-0.00351743742089017,5.53738211754862e-05,-0.00132175732460915,-0.00262345461172497,9.43990835455821e-06,-0.00361476782693959,-0.00164100149782165,-0.00123475937990669,4.74436939343903e-05,-0.00313679532257716,-2.80335034918977e-06,-3.88098238808254e-05,6.3413159296033e-05,-0.000708070544575889,-0.00013400759449933,-0.000645067279402056,8.07078795315164e-05,5.63025629567449e-05,3.85452423889987e-05,8.09420638336888e-06,-5.98618134048934e-05,-0.00308177357242556,8.14400558963868e-05,-7.54345527846922e-05,-0.00157419993572372,-0.00415278091579019,-5.14397592485949e-05,-0.00259705568101598,6.13388408385873e-05,-0.00261918996840116,-1.80468915891296e-05,-0.00063631553262411,-0.00258768532641085,-0.00346842317930918,1.91948211689663e-05,0.000112147593001488,-3.53453022245986e-05,-0.00263796019711116,-0.00206454243254406,-7.3976764878303e-05,-0.00146939261218915,-0.00202939677895575,-0.0028066528423345,-6.98856960292815e-05,2.5390065829356e-05,-0.00419353431575509,-0.00210935763744668,-1.48771001047265e-05,-1.39159006717904e-06,-0.00182791231182655,1.3361459243022e-05,-0.000211654448747822,-0.00132579495699137,-3.53453022237105e-05,-0.00623357394672919,-0.00106361027112811,-0.00365787280135077,-0.00385595508529324,-0.000181420325816362,-5.51837236804076e-05
"15:59445399:T:G",-0.00342197953635459,-0.000708445049009576,-2.62252455280887e-05,9.18786081776091e-05,0.000220914892186563,6.28309228893897e-05,0.000181883333853605,5.4431856597148e-05,0.0877153497151175,-0.000311019484286135,-0.000421632092798774,-0.000141578031706224,-1.37546089939988e-05,3.01882872415504e-05,-0.00417888010762013,0.000156339135558348,1.09468830293835e-05,-1.80045872806289e-05,9.47036674165957e-05,6.22553539404436e-05,9.39108614508299e-05,5.4431856597148e-05,3.71812569728291e-05,6.22553539404436e-05,0.000190344852894597,3.01882872415504e-05,-0.00476904222339858,-0.000550148469706357,-4.13498783995436e-05,-0.000292064131125258,-0.000105274050636872,0.000202681241361802,6.22553539404436e-05,8.87624484740002e-05,0.000180879665144573,-0.000135777894969991,-0.000720772673550307,-0.000488686222181123,3.71812569728291e-05,-7.51284679854081e-05,-0.00441997305620312,3.01882872415504e-05,6.53272134591987e-05,4.68723908939594e-05,0.000143908326116993,-0.00067251483519648,-7.51284679854081e-05,-0.00414065973292477,-0.000564976157312103,1.32097817280297e-05,0.00252208208289773,6.03616421086528e-05,-8.04735325585781e-05,-0.000733561762475965,-0.00176711852350664,-0.000173025061352305,3.48247568888738e-05,-0.000751963292544566,3.48247568888738e-05,-0.0014253584782864,-0.000859831232243202,9.05187855142486e-05,-0.00160891713046407,-0.00101032631442077,-0.00753258035368276,-2.21604360906014e-05,0.000200126674567258,-0.000105274050636872,2.14169470780234e-06,1.32097817280297e-05,3.48247568888738e-05,-7.69303471299665e-05,8.70903365690623e-06,0.000227736334071693,1.32097817271415e-05,-0.000777474199083805,6.53272134591987e-05,6.28309228893897e-05,-0.00112751974363423,0.000156728376041748,3.01882872415504e-05,3.71812569728291e-05,-0.003792829146402,-0.000113293414223392,-0.000162887792200195,-0.000113293414223392,-0.000164138772285938,-0.00103241210157634,-2.00940815213713e-05,-0.000996070681740235,-0.000128140281359101,-0.00162256323997134,-0.000100237909871126,-0.00380669196208583,4.30683924879105e-06,6.78509587022091e-05,-0.000447999446570257,-0.000227551056831921,-0.00153755867779903,-0.000264513328786187,-0.00017177803365076,-0.000114843954651889,-0.000419897121502366,-1.80045872806289e-05,-0.00103383258535494,-0.000196736601573377,-0.000173025061353194,-0.000428530192544407,-0.00149804458301084,-0.000833287501845525,9.05187855151368e-05,-0.00277008165260373,0.000377192607077248,-0.00563882341133137,3.24939056257634e-05,0.000220914892186563,4.93637044591821e-05,0.000206831706083932,-0.00121761695602363,-0.00045955890736149,6.28309228893897e-05,-0.000505195201854214,-0.000568804908566811,0.000126280401453904,0.000159537104901908,-0.00071349218875838,-0.00407840798049808,0.000120658405998064,-5.11486468717237e-05,0.00012913771559564,-0.000778064056139449,-0.00111375019143534,-0.00288452871277567,-0.00241866252565615,-2.62252455280887e-05,-0.000511081220695431,-0.00256226278834237,6.28309228893897e-05,-0.00135826040864728,-0.000170516786623942,-0.00339623426284952,9.85035737901541e-05,-0.000534691511033358,9.58128819688042e-05
"15:59446659:C:T",-0.000759986279980751,-0.00639398387781931,-7.08244189526752e-05,-0.000105344253670481,-0.000187063777111085,0.000155931153658528,-0.000735217128068122,-0.00507550402526391,-0.000311019484286135,0.23441824995761,-0.00335293562783656,-0.00209047026814702,-0.00333607050536777,7.65572470715625e-05,0.000155924322521983,-0.000108092771346158,-0.00176163102031079,-0.00283403530793702,-0.000555304747507535,-0.00363406256545939,-0.000541730629472603,-0.0015036577847205,-4.5132323739594e-05,-0.000623500779886044,-0.000482901143413095,7.65572470715625e-05,-0.0014728380223179,-0.00144679618924393,-0.00150291728974228,-0.00383705727442596,-0.000562260289295402,-0.00059328295314387,-0.000623500779886044,-0.00526927254198739,0.000426049415716001,-0.000732818788962142,-0.00105395139401709,-0.00044008504172055,9.06411793355488e-05,-0.00335299058468852,9.15487812891413e-05,7.65572470715625e-05,-0.000404607185108041,0.000110131492946586,-0.00348601295450734,-0.00120756599385974,-0.00335299058468852,0.000226987675905121,-0.00115337664430548,-0.00243477167115369,-0.000311019484286135,0.000150958127195011,-0.00110436841050987,-0.0014288051589606,-0.000176159612872873,-0.00066380808740707,8.58969964383505e-05,-0.00512952100490871,-0.00272899121170589,8.62124190170732e-06,-0.00194587690290593,0.00022315606827128,-0.0043808420265159,0.000119842953305138,-0.00482021840594804,-0.00341656101431553,0.000123450216942267,-0.000205194864801861,4.28755172698914e-06,-8.72190489582536e-05,-0.00195850028870037,-0.00260316432591878,-0.00181032952674798,-0.000810394992687868,-0.00473030920048334,-0.00616704641191124,-0.00148697587159319,0.000155931153658528,-0.000383648301805373,0.000372335939996304,7.65572470715625e-05,-0.00203418816505607,0.000372335939996304,-0.000927531780392954,-0.000731359290149669,-0.000313741065185447,-4.25000113759566e-05,-0.00574059636383506,-0.00180653918506657,-0.000753555675861328,-0.00522383979890151,-0.00101313026901018,-0.000291063447783735,-0.000322412760978885,8.62124190170732e-06,-0.0038168957548903,-0.00309689817820136,-0.00146042665544144,-0.00565198159530489,-0.00104120668566487,-0.00120388494807067,2.80380187627216e-05,-0.000541732999559841,-0.00170976828685987,-0.00449527414776085,-0.00329027103272228,-0.00082539046477148,-0.00717187527282892,-0.000193588933963262,-0.00167377016318593,0.000223156068273056,-0.00633658198447318,-0.00361960713648024,-0.00225163582529042,-0.00177073097116409,-0.000187063777111085,-0.00365346157162705,-0.00362874290808701,-0.00219167032580803,-0.00314404933821688,-0.00117425194998066,-0.00164402480448533,-0.00545986561834688,-0.000888531832371697,1.33344718573625e-05,-0.00714054853208168,-0.000847374306977677,0.000293103370328396,-0.00124473616990883,-0.00316542440470791,-0.000205751819536637,-0.00234030414498232,4.28755172698914e-06,-0.000193400562116253,-7.08244189526752e-05,-0.00328584989563918,-0.00483079135485465,-0.00117425194998155,-0.000585809506009838,-0.000367229131343905,-0.00103122513914045,-0.00291543473685429,-0.00300715847009059,-0.000654775302811217
"15:59450079:T:G",-0.00162400118522354,-0.0093924528471101,-0.00136536129334974,-4.89096708609082e-05,-0.000110723424535664,-0.000913351637379378,-0.000892024962995563,-0.000161681816591042,-0.000421632092798774,-0.00335293562783656,0.408167082631032,6.19606731699918e-05,-0.00315752204918418,0.000148543804080248,-0.00212893329247299,-0.00220312661202104,-0.0120919161316904,-0.00889277364088947,-0.00387499557018867,-0.00187752556434173,-0.00381139778862005,-0.00564161881200054,-0.000263182041964072,-0.00054007909478937,0.000118979157414323,-0.000306619360589622,-0.000446164222150713,-0.00213247385211845,0.000121567196985417,-0.00199378072020506,-0.00466038630107679,-0.00287613840827117,-0.00054007909478937,-0.00560542747258141,-0.000599630129677564,-0.00455314662098782,-0.00680820802142801,-0.000112675778886739,6.77845082073247e-05,-0.00308466621455938,-0.00242947474134469,-0.000306619360589622,-0.000226243975202323,-0.000299852815394352,3.59176309290277e-05,-0.00534884124719426,-0.00308466621455938,-0.00419149223011317,-0.0032903538388398,-0.00147114172658203,-0.000421632092798774,0.000288715102282566,-0.0162396023778095,-0.0040785898766158,-0.00149522380289779,0.00039631001318341,-0.000139436983442209,-0.00383946618874109,-0.00197962296061327,-2.40911743478733e-05,-0.0125766024934948,-6.77768793604372e-05,-0.00123504567301058,-0.00199467473785075,-0.00509803613996729,-0.00311560258457,-0.00638480929365759,-0.000145514033063066,-0.00413303138328924,-0.000254919935494868,-0.00317730179180398,-0.000243726803674349,-0.00351201719500338,-0.005992788384245,-0.0010437258450624,-0.00263161073477614,-0.00313650267196763,-0.000250475159263353,-0.00615435876716175,-0.00863279487030422,-0.000110329312922985,-0.00137256196709679,-0.00113044907687332,-0.0036068893957184,-0.00107543776805485,-0.00436061771681828,-0.000568628187179065,-0.00340117284103103,-0.00373783876409028,-0.00232472019510643,-0.00384298040936848,-0.00251544324225295,-0.000625298074381497,-0.000182411565814,-2.40911743478733e-05,-0.000553677765771532,-0.00339524478534425,-0.00125389972932632,-0.0031336936481865,-0.00837559802229482,-0.00534076327749577,-0.000120092986955811,-0.00128904690409737,-0.00460744413132907,-0.00297087771677207,-0.000208880593933536,-0.000526503817085633,-0.00184259743472515,-0.00281622378372726,-0.000787944757031589,-0.000369619253161702,-0.00223459218687783,-0.00023957671003183,-0.00641889304848631,-0.00156266365753588,-0.00711110391229575,-0.00482424430905315,-0.00726659998442702,-0.00355599173149201,-0.000181588552323753,-0.00263150113634314,-0.00407158504932159,-0.000538791943001549,-0.00178722664650177,-0.00634543568467683,-0.0143570187988384,-0.00774347084952343,-0.000650488888359391,-0.000112675778886739,-0.00113946804800324,-0.00157016613839644,-0.0023268385418076,-0.00408765757472906,-0.00446249205364913,-0.000150045470627802,-0.00470254282733285,-0.00818014266451028,-0.00263150113634225,-5.92901582878724e-05,-0.00753504377347625,-0.00998411882110339,-0.0015058808893933,-0.00701663357041893,-0.000817403544662199
"15:59451518:C:T",-0.000224265485664787,-0.00487300378508504,-3.33176077056407e-05,0.000114942703536514,0.000279508235752068,7.93276125454767e-05,0.000229244513406002,6.77710256100639e-05,-0.000141578031706224,-0.00209047026814702,6.19606731699918e-05,0.10396101812744,-1.81971761410438e-05,3.81469132699763e-05,-0.000999131303612621,0.000196624414290802,1.33251346223773e-05,-2.33509487843619e-05,0.000118408399901959,7.7336186208754e-05,-0.0127968396984439,6.77710256100639e-05,4.66893247255129e-05,7.7336186208754e-05,0.000240697014850966,-0.00282966021054332,-0.000661489804462789,0.000337042533137932,-5.32572638389794e-05,-0.000369970320650559,-0.000133886238206316,-0.0135288155581712,7.7336186208754e-05,-0.000764686117502578,0.000228976121794844,-0.000172435682585181,-0.00423392615204943,-6.50838668603271e-05,4.66893247255129e-05,-9.57659828859647e-05,-0.000817286606006995,-0.00282966021054332,8.23868863424337e-05,5.85311580367787e-05,0.000181291130571637,-0.00431863515470976,-9.57659828859647e-05,-0.000969561611519509,-0.000203506726579761,1.60802914956903e-05,-0.000141578031706224,7.63016983151843e-05,-0.000102181276328217,-1.29245361959462e-05,-0.00198394159579962,-0.000218886395233042,4.38104610180901e-05,-0.000692145154991053,4.38104610180901e-05,5.24190985551343e-06,-0.00547867065983798,0.000114463207105509,-0.00099831541203077,0.000129053847611971,-0.000737665037785717,-2.83898267525728e-05,-0.00176333796626338,-0.00036956533622412,2.60658619488652e-06,1.60802914956903e-05,4.38104610180901e-05,-9.792878690984e-05,1.06006904196931e-05,-0.00229660612154259,1.6080291493914e-05,-0.00125786123861094,8.23868863424337e-05,7.93276125454767e-05,3.32862766319053e-05,-0.00338216411913006,3.81469132699763e-05,4.66893247255129e-05,0.000198151329257712,-0.00236253761439187,-0.000137775958259923,-0.00014344712129688,-0.000139687764654894,-0.000445401476391716,-2.5884508263907e-05,-0.000856697362314307,-0.003014835373361,0.000360014721169755,-0.000127880576243022,0.000181291130571637,5.24190985551343e-06,8.54800738778749e-05,-0.000199116038554159,-0.000288525037325016,-0.00512078015008477,-0.000334381851176069,-0.000217427230240652,-0.000145295387250499,-0.000100067079997324,-2.33509487843619e-05,-0.000576770714048713,-0.000249525725035227,0.00148151144960185,-0.00102527117175377,-0.000407812996521706,-0.000417238793429142,0.000114463207105509,-0.00594457054007158,-0.00391415796287298,-0.00233320742844612,4.09631624984641e-05,0.000279508235752068,6.15759994531118e-05,0.00026112210392526,-5.32572638389794e-05,-0.000305147568509412,7.93276125454767e-05,-9.792878690984e-05,-0.000585158003886477,0.000159558561422024,-0.00113273113144885,-0.000980940962966415,0.000141380497332477,0.000152630260371822,-6.50838668603271e-05,0.000163080302352014,-5.08096466251828e-05,2.74186640671914e-05,2.60658619488652e-06,-0.00193723753632646,-3.33176077056407e-05,-0.000606523663210012,-0.00415122181417615,7.93276125454767e-05,5.25438690157642e-05,8.69018757052586e-05,0.000340956128416003,0.000124277482211888,-0.000623726858419715,0.000120969994513942
"15:59453535:C:T",-0.00334665316426186,-0.00373212509449505,-2.80794073237445e-06,-0.00203426789408745,1.33257508325713e-05,5.81894965989704e-06,-0.00246237123167248,-0.00217554287347088,-1.37546089939988e-05,-0.00333607050536777,-0.00315752204918418,-1.81971761410438e-05,0.220474508864641,2.9770411638097e-06,-0.000809567322162863,1.16489079120541e-05,-0.00227620940226636,-0.0018233565421335,-0.00223709463686461,-0.00204929499733275,-0.00797237317939725,5.34252991091222e-06,3.68850979270974e-06,6.04484786936865e-06,1.27056235079692e-05,2.9770411638097e-06,-0.000324159834583782,1.33633092396224e-05,-4.31045924109696e-06,-0.00109551866100155,-1.26653592413817e-05,-0.00848863871838557,6.04484786936865e-06,-0.00199457407171799,-0.000128693390203161,-1.71266982178508e-05,-0.00778725499166733,-0.00144094334282485,3.68850979270974e-06,-8.57760672268171e-06,-0.000556268615736322,2.9770411638097e-06,6.03825401057634e-06,4.63549687879095e-06,-0.00161240176458666,-0.00776852799714156,-8.57760672268171e-06,-0.000814871545295581,-0.0014247094378641,1.50688048705661e-06,-1.37546089939988e-05,5.59905194119636e-06,-0.00560325651795068,-0.00172358066641465,-0.0048066668068758,-2.32566450133476e-05,3.4513846918216e-06,-0.00271056105517076,-0.00183167013359675,5.00475974440917e-07,-0.00395680044574664,7.85960232541072e-06,-0.00270562126478424,-0.00210506646397501,-0.00141270231313584,-2.2864285620372e-06,-0.00138150524660574,-0.00312670795699521,2.49982571531859e-07,1.50688048705661e-06,3.4513846918216e-06,-0.00307640388467956,-0.00232173432192528,-0.00111896139048362,1.50688048439207e-06,-0.00717262105420602,6.03825401057634e-06,5.81894965989704e-06,-0.00466561513032104,1.15472079560419e-05,2.9770411638097e-06,3.68850979270974e-06,1.15472079560419e-05,-1.40223803510864e-05,-1.32136331050248e-05,-1.40223803510864e-05,-1.34850293571631e-05,-0.00131556834899449,-2.02434457818867e-06,-0.00207170849647031,-1.57424337370315e-05,-0.00289506487283919,-1.18291379322955e-05,-0.000121350984639612,5.00475974440917e-07,6.256899316881e-06,-0.00401509669387501,-0.00115484691566614,-0.00277165491477405,-3.96639552739941e-05,-0.00545990141731689,-1.42883521077053e-05,-9.12664691909981e-06,-1.76140565955052e-06,-0.00385405758040402,-0.00116183303463835,-2.32566450133476e-05,-0.000153418891246204,-2.1168946680028e-05,-0.00177394884158844,7.8596023262989e-06,-0.00184057300461848,-0.000236013816039105,-0.000239561937674715,3.21421246596287e-06,-0.00382763007658493,4.87158305784163e-06,-0.0032042653231823,-0.00171864497127139,-0.0048593348658299,5.81894965989704e-06,-8.85290870833444e-06,-0.000104079053464545,-0.00101323484294902,-0.00175386878497807,-0.00445076671437494,-0.00526335022107016,-0.000149648856176299,-5.66792108003256e-06,-0.0012049711613269,-0.00174148952994457,-6.62946499918604e-06,2.49982571531859e-07,-0.00357091196642489,-2.80794073237445e-06,-0.00214374673449313,-0.0228930868516981,5.81894965989704e-06,4.16241504463954e-06,-2.27475968621604e-05,-0.00678308427582852,-0.0013722701825607,-0.00344289214238458,-0.00118579980575007
"15:59453681:T:C",0.000143768481173367,0.000176770293775164,7.11818869802983e-06,-2.74908600426116e-05,-6.44631284769659e-05,-1.7903192986779e-05,0.00205388993281996,-1.65078928855422e-05,3.01882872415504e-05,7.65572470715625e-05,0.000148543804080248,3.81469132699763e-05,2.9770411638097e-06,-0.00987235495597449,-2.9375926131614e-05,-4.62835195191857e-05,-3.61447029373352e-06,4.38989509099486e-06,-2.84275297932624e-05,-1.91007409684474e-05,0.000166158518097426,0.000189464723153066,-1.08106461826907e-05,-1.91007409684474e-05,0.00146473057835195,-8.50887695591496e-06,-7.06742207867705e-07,0.000416544108267303,1.0426605403957e-05,7.63694482008859e-05,2.79801029705595e-05,7.85340010045488e-05,-1.91007409684474e-05,-2.96236307253395e-05,0.00205388993281996,3.6124896215739e-05,0.000205170585853232,1.37058518845379e-05,-1.08106461826907e-05,1.98590555458011e-05,-1.99865613570438e-05,-8.50887695591496e-06,-1.87240526248189e-05,-1.40079136015103e-05,-4.21586585925837e-05,0.000203076780260325,1.98590555458011e-05,-3.78425510838554e-05,-0.000628934111601254,-4.36298639083788e-06,3.01882872415504e-05,-1.7091781562506e-05,2.16644779129638e-05,1.53015108672605e-06,-1.5941731739133e-05,4.65737659736121e-05,-1.00344951761144e-05,-0.000363685353359955,-1.00344951761144e-05,-1.42075762887828e-06,-2.49511963623661e-06,0.00205388993281996,9.75883082352524e-05,-3.13087908399012e-05,2.00180074036993e-05,5.7699000644007e-06,-5.85682337916893e-05,2.79801029705595e-05,-7.06302828668015e-07,-4.36298639083788e-06,-1.00344951761144e-05,2.0467961396875e-05,-2.87469436344168e-06,-6.67369121263306e-05,-4.36298639261423e-06,0.000199194199851149,-1.87240526248189e-05,-1.7903192986779e-05,-9.04662089595831e-06,-4.52582291199377e-05,-8.50887695591496e-06,-1.08106461826907e-05,0.00130549262204482,3.0724407713123e-05,2.90971600112044e-05,3.0724407713123e-05,2.9645908089293e-05,5.91747999871828e-05,5.08393166676058e-06,-2.04775281424929e-05,3.34578844070066e-05,-8.49561626523609e-05,2.62538401933909e-05,-4.21586585925837e-05,-1.42075762887828e-06,-1.95545265011532e-05,3.56042640987653e-05,5.99482183005762e-05,1.41831658453384e-05,7.02107751369141e-05,4.61283434463056e-05,3.12543772285068e-05,2.10697272287064e-05,4.38989509099486e-06,-2.93759261325022e-05,5.20623169784074e-05,4.65737659727239e-05,-3.10094630942004e-05,4.28590600547452e-05,1.51525966227695e-05,-2.57497253919325e-05,0.000116815749757748,0.000448890668802271,-0.000173624840383191,-9.26729003491999e-06,-6.44631284769659e-05,-1.48312311782917e-05,-6.08008820348616e-05,1.0426605403957e-05,6.69267462267698e-05,-1.7903192986779e-05,2.0467961396875e-05,-0.00106240450844464,-3.63348407663722e-05,0.000435129244415577,0.000201087181969761,-3.29659457642961e-05,-3.4483739232094e-05,1.37058518845379e-05,-3.72767989436085e-05,9.74702235634339e-06,-7.44762585647152e-06,-7.06302828668015e-07,-0.000361837272049748,7.11818869802983e-06,-0.000223859757303657,4.36641765046986e-05,-1.79031929858908e-05,-1.23904191751123e-05,4.5677706259184e-05,-7.97939076671028e-05,-2.83762147370581e-05,0.000669627031310682,-2.74904783212904e-05
"15:59455272:C:T",-0.000101433324939393,-0.00151812892390257,2.36761560943322e-05,-0.00241667295458026,-0.000240760323017675,-0.000698816386732304,-0.000252778517443986,-5.9861813403117e-05,-0.00417888010762013,0.000155924322521983,-0.00212893329247299,-0.000999131303612621,-0.000809567322162863,-2.9375926131614e-05,0.22778059174221,-0.00121492197350026,-1.337091003073e-05,1.3769201802738e-05,-0.000123755618870902,-0.00163557309173434,-0.000103546856794701,-0.00161407313382345,-3.80573587772659e-05,-0.00248785448738609,-0.000441162200162104,-2.9375926131614e-05,-0.0138385219133763,-0.00141193505069381,3.32244986465113e-05,0.000229266750661594,9.00084366888265e-05,-0.000180815855624239,-0.00248785448738609,-0.00418294911837691,0.000157205044632569,0.000115145330838118,-8.89324659874013e-05,4.49708250966907e-05,-3.80573587772659e-05,6.4298220388892e-05,-0.00350629108153289,-2.9375926131614e-05,-0.0041638463692637,-0.00158107121993822,-0.00327101965445831,-6.77625332397014e-05,6.4298220388892e-05,-0.00333528909127079,-0.00230486098581739,-1.61629620913928e-05,-0.00417888010762013,-5.97217286468776e-05,-0.00348657400811092,-4.36555414626838e-05,-0.00124880364252711,0.000147160171438898,-3.51217976115592e-05,-0.00690211118253714,-3.51217976115592e-05,-5.2337644023126e-06,-0.000842244028953054,-9.10541067415949e-05,-0.00701028515473201,-0.00102124221468092,-0.00799852506677912,-0.00211739418161905,-0.00112130369781482,-0.00253852107714536,-2.59830893689639e-06,-1.61629620913928e-05,-3.51217976115592e-05,6.64339017912852e-05,-0.0018467386857175,-0.000891320496356762,-1.6162962092281e-05,-0.00521672835864928,-0.0041638463692637,-6.28406075282584e-05,-0.00160180813175259,-0.00158833388199042,-2.9375926131614e-05,-3.80573587772659e-05,-0.000572231315915772,9.9384211620368e-05,-0.00350827877448978,-0.000841450761100759,9.57135446624235e-05,-0.00670348074209226,1.62995680943467e-05,-8.44806586215441e-05,0.000106115547435337,-0.00491473948528309,-0.00488435206676652,-0.000283698870957139,-5.2337644023126e-06,-6.92156404547006e-05,-0.000321734112244343,-0.004799938049735,-0.00582863973905656,-0.000612241448348705,0.000145709190167764,0.000101181345864454,6.85390182493251e-05,1.3769201802738e-05,-0.000758622597178515,-0.00280502576812225,0.00014716017143801,-0.00211256773951085,-0.00157937928284735,-0.00430741839865156,0.000228027392784824,-0.000350484074136403,-0.00452809181523062,-0.0065599959958007,-3.22282768294713e-05,-0.00141231522836183,-0.00341561233560483,0.000122245199123405,-0.00423451012646225,-0.00440132986399533,-6.28406075282584e-05,-0.00174865373245581,-0.00271016928115042,-3.58743492130387e-05,-0.00144971735111543,-0.00533817014633131,-0.00149409118125643,0.000205352958520422,4.49708250966907e-05,-0.00086090512515824,-0.00209651554790113,-0.00420247198375368,-2.59830893689639e-06,-9.49126266087674e-05,2.36761560943322e-05,-0.00343285010643779,-0.0169730722436614,-6.28406075282584e-05,-4.40582051162153e-05,-0.00272837750560129,-0.00114914299468882,-0.000101399666128543,-0.000150543061332442,0.000148051183042064
"15:59457005:G:C",-0.000165902960278963,-0.000279809564355915,3.72050663735024e-05,4.82499146094995e-05,-0.0003677746468016,-9.86709269659158e-05,-0.00224311013790413,-9.64190805499143e-05,0.000156339135558348,-0.000108092771346158,-0.00220312661202104,0.000196624414290802,1.16489079120541e-05,-4.62835195191857e-05,-0.00121492197350026,0.151758690709281,-2.2367238521781e-05,2.03990681209021e-05,0.000131400353704514,-0.000270540411544395,0.000358038877115607,-9.64190805499143e-05,-0.00107537229612653,-0.000266410656296401,0.000671218829628728,-4.62835195191857e-05,-0.00154874345465483,0.00167832754377439,-0.000145825110924314,0.000379493383523055,-0.00207174818021727,3.88452590835975e-05,-0.000266410656296401,-0.000410745017843439,0.00114575683012141,-0.00221335882959295,0.000530209083542843,7.06851924618945e-05,-6.06114575392169e-05,0.000101012857586902,-0.00137154567724629,-4.62835195191857e-05,-0.000103822441492873,-0.000249393740518578,-0.000240602848357696,-0.00069061849278329,0.000101012857586902,-0.00125342469765943,0.000210483099264636,-6.05245552716127e-05,0.000156339135558348,-9.35883849004782e-05,0.000112063240853999,2.65453313019748e-06,-0.000173600550872788,0.000239197898793009,-5.57712038231628e-05,-0.00535912618742262,-5.57712038231628e-05,-8.76780179748238e-06,-2.35309268470374e-05,0.0012386259211139,-0.00238864957310403,-0.00418453758222803,-0.00310140766681499,2.89147199783457e-05,-0.00443719156268774,0.000142876039507023,-4.35483403471437e-06,-0.00537041111173675,-5.57712038231628e-05,-0.00206338563466169,-1.77727998789123e-05,-0.00505334275183422,-0.00112112497547034,-0.00236733719069626,-0.00064358633647732,-0.000321392467912851,0.000133164403342434,-0.000254441736792899,0.000666848630451966,-0.00107537229612653,-0.000248353310790428,-0.00135157992633506,-0.00041430399321829,0.000159594345181979,-0.00538973728852365,-0.00192028037525915,2.46856210033286e-05,-0.00150500050879998,-0.00107711723039206,-0.00254187007664619,-0.00215998477447155,-0.00299797990720396,-8.76780179748238e-06,-0.00189870086418598,-0.00209075722625229,-0.00224132450550485,-0.00224921794463517,0.000353544473038703,-0.00430299781177812,-0.00078671611797887,-0.002243375080071,2.03990681209021e-05,-0.00326602584184954,0.00092016108769144,-0.00116182487060978,-0.00362594481754464,-0.00444507905117408,-0.000313710844357828,-0.000141931609659807,-0.00509110000596369,-0.000253054621281557,-0.00186994271000707,-0.000794315621548414,-0.0003677746468016,-8.5830172670498e-05,-0.00156281218137977,-0.00161701403506598,0.000538773614607635,-0.00113910091965597,-0.00115808846314369,-0.000113954267881411,-0.000324321625057244,-0.0047595194425849,-0.00406842114947681,-0.00233923543685144,-0.000191330564787151,-0.00231668721861489,-0.000521870830614724,-0.000142090572303744,-0.00133613599308546,-4.35483403471437e-06,-0.000910348303680308,0.000357851564509737,-0.00551197870142772,-0.00797860993336474,-0.00113910091965597,-7.04913204021551e-05,-0.00092356348952638,-0.00224263324637519,-0.00063746458956615,-0.00687665433818108,-0.000445553686907907
"15:59457813:G:A",-0.00469319914952315,-0.0032331996587347,2.85442108349798e-06,-0.00242169934066983,-3.30708170412919e-05,-7.8693623493109e-06,-2.65421623986128e-05,-7.16395971611661e-06,1.09468830293835e-05,-0.00176163102031079,-0.0120919161316904,1.33251346223773e-05,-0.00227620940226636,-3.61447029373352e-06,-1.337091003073e-05,-2.2367238521781e-05,0.156677022255638,1.80664789262153e-06,-1.29003793754023e-05,-8.35808336940858e-06,-0.00660016013267484,-7.16395971611661e-06,-4.61503013227116e-06,-8.35808336940858e-06,-2.75890487912989e-05,-3.61447029373352e-06,-2.14497904771349e-07,-4.47227856970045e-05,4.16472543740554e-06,2.17564705078388e-05,-0.00160367756733493,-0.00974276469679936,-8.35808336940858e-06,-0.00227131689626781,-2.57864471313596e-05,-0.00148854750539762,-0.0115067833868174,5.35469331097715e-06,-4.61503013227116e-06,7.56741735408184e-06,-8.77092492945764e-06,-3.61447029373352e-06,-8.24917978103912e-06,-0.00186679185867966,-0.00148574276132862,-0.0112924575806428,7.56741735408184e-06,-1.77641455847422e-05,1.44122226881649e-05,-1.78969144393193e-06,1.09468830293835e-05,-2.70586026456243e-05,8.17015595711013e-06,6.82807510088423e-07,-0.000958847431787646,-0.000615188675694434,-4.27576135386687e-06,-0.0017541245318986,-4.27576135386687e-06,-5.76120484652165e-07,-0.00211086115111137,-1.16492317259187e-05,-0.00184555799755604,-1.43386350925923e-05,-0.00764469460348582,2.33960501017094e-06,-2.94893594556811e-05,1.02716445979922e-05,-2.85601567284743e-07,-1.78969144393193e-06,-4.27576135386687e-06,7.77187264944246e-06,-1.17236798580223e-06,-3.44616192222702e-05,-1.78969144482011e-06,-0.00321810686626822,-8.24917978103912e-06,-7.8693623493109e-06,-3.77848115551416e-06,-0.000761052031966969,-3.61447029373352e-06,-4.61503013227116e-06,-2.18603615778079e-05,1.11084516412063e-05,1.06151924681441e-05,1.11084516412063e-05,1.07824854520544e-05,-0.00621715054361793,2.07544683039629e-06,-8.92533713869881e-06,1.19996876408734e-05,-0.00133259524526341,9.73282931582276e-06,-2.0119572622157e-05,-5.76120484652165e-07,-8.63561512787214e-06,1.26151956969522e-05,-0.0013592518098724,-0.002345841577994,2.07204007542927e-05,1.54953118087775e-05,1.1267255848324e-05,-0.00311949746917684,1.80664789262153e-06,-0.00239884960062309,-0.00137320412918385,1.56053260447209e-05,-0.00807842183817353,1.46683114836677e-05,-0.004898657565791,-1.16492317259187e-05,-0.000325283437002888,-0.00159292949832501,-0.00205863347149293,-3.94228513034278e-06,-3.30708170412919e-05,-1.09101312348869e-05,-0.00130248691872037,4.16472543740554e-06,-0.00143770416145639,-7.8693623493109e-06,-0.00290126988451789,-0.00532904679908519,-1.70365526503957e-05,-2.29553971307084e-05,-0.0002216006511091,-1.52429673017096e-05,-1.60788283531943e-05,5.35469331097715e-06,-1.75280207095341e-05,-0.00235767557328526,-3.09164916867388e-06,-2.85601567284743e-07,-0.00545528531784534,2.85442108349798e-06,-0.00144775847778345,-0.00724582045870559,-7.8693623493109e-06,-5.31148930882352e-06,1.53833604183973e-05,-4.28021551339697e-05,-1.2938289682296e-05,-0.000175576384631171,-1.25011515796913e-05
"15:59458442:A:G",-0.000523860112590313,-0.0128369438187415,-3.92797764359187e-06,1.29995443218789e-05,2.63977220473777e-05,8.89737239795352e-06,2.29470644272922e-05,8.09420638336888e-06,-1.80045872806289e-05,-0.00283403530793702,-0.00889277364088947,-2.33509487843619e-05,-0.0018233565421335,4.38989509099486e-06,1.3769201802738e-05,2.03990681209021e-05,1.80664789262153e-06,0.132339357571657,-0.000749359671387673,9.24815606140328e-06,-0.00544986128000868,8.09420638336888e-06,5.47820117802189e-06,9.24815606140328e-06,2.35892538897886e-05,4.38989509099486e-06,1.17158705847942e-07,-0.00233726426731096,-5.97713976357994e-06,-5.2956478249655e-05,-1.66758066191264e-05,-0.00575595137972584,9.24815606140328e-06,-0.0022367920242754,2.25884403999288e-05,-2.20847297480731e-05,-0.00826735815404067,-7.76990024853319e-06,5.47820117802189e-06,-1.15500095549947e-05,9.63714965518392e-06,4.38989509099486e-06,-0.00156052117568262,-0.00214115668472736,1.89424376069169e-05,-0.00804239456463218,-1.15500095549947e-05,1.72244752461026e-05,-2.6226613059066e-05,-0.00204610964367724,-1.80045872806289e-05,8.53578565429558e-06,-1.25886104234141e-05,-1.01808925556668e-06,-0.0043268769514766,-2.92634612923948e-05,5.11324833674109e-06,-0.00284623192550804,5.11324833674109e-06,7.15449544053115e-07,-0.00181851128857957,1.24331999629135e-05,-0.00222641879931462,1.45458133076204e-05,-0.00173477463772187,-3.21620847199e-06,-0.00307986919036729,-1.66758066191264e-05,3.56530902578811e-07,-0.00204610964367724,5.11324833674109e-06,-1.18990821107445e-05,1.44049686667813e-06,-0.00364571926491575,-0.00235340883497326,-0.00252914619268285,9.26087733343905e-06,8.89737239795352e-06,4.43832765562036e-06,2.01558710477556e-05,4.38989509099486e-06,-0.00266901069172132,2.01558710486438e-05,-1.83296134999011e-05,-1.73459986987368e-05,-1.83296134999011e-05,-1.76767266850675e-05,-3.90143804347431e-05,-0.00281196809581008,9.64943116077421e-06,-2.04347655783366e-05,3.15253805114324e-05,-1.56481660464891e-05,-0.00590142778877567,7.15449544053115e-07,9.62629451795038e-06,-0.00235490471292632,-3.95420373413558e-05,-0.00157049775501061,-0.000452012462973883,-2.89726971942628e-05,-1.86518379647893e-05,-1.22452725630495e-05,-2.4940656082606e-06,-0.000843382988998442,-3.34885359078996e-05,-2.92634612923948e-05,-0.00245099116795711,-0.0013174232746902,-0.0025178344333785,1.24331999629135e-05,-0.0011188525801753,3.6218675604438e-05,-0.000212451614554965,4.7504808611265e-06,2.63977220473777e-05,7.33582112388831e-06,2.52588138280885e-05,-5.97713976357994e-06,-0.00121276818273319,8.89737239795352e-06,-1.18990821107445e-05,-0.000482978135064371,1.67869760447914e-05,2.07652609489628e-05,-0.00212407985871987,-0.000668092084024963,1.60775720923212e-05,-7.76990024853319e-06,-0.00374046269593453,-5.6101275642817e-06,3.67407901791239e-06,3.56530902578811e-07,-0.0015154949985785,-3.92797764359187e-06,-0.000327619486161446,-2.04766660738542e-05,8.89737239795352e-06,6.21467394079644e-06,-0.00466875017968515,-0.000348578027793423,-0.000438004440029616,-0.00047390335390407,1.31536987799663e-05
"15:59462897:G:A",0.000102211802035512,-0.00143849743821445,2.29509249436433e-05,-9.68738757363141e-05,-0.000232149860252662,-6.07646539148021e-05,-0.000192438265488093,-0.00161308571437235,9.47036674165957e-05,-0.000555304747507535,-0.00387499557018867,0.000118408399901959,-0.00223709463686461,-2.84275297932624e-05,-0.000123755618870902,0.000131400353704514,-1.29003793754023e-05,-0.000749359671387673,0.177439438345143,-7.72476827020085e-05,5.57465444592786e-05,-0.00161308571437235,-3.67953544202493e-05,-0.00248435426745619,-0.000849505525956751,-2.84275297932624e-05,-3.37059491686276e-05,-0.000126452294281876,-0.00207083533412611,-0.000149207814756913,-0.0025418777540418,0.000120146417386557,-0.00248435426745619,-0.000273893867857034,-0.00018447266546584,-0.00270047335818369,0.000135051489496441,4.36200486140237e-05,-3.67953544202493e-05,-0.00237220516217196,-7.63204302387521e-05,-2.84275297932624e-05,-5.17350885385071e-05,-4.85298670600542e-05,-0.00326444768920364,0.000148356452724041,-0.00237220516217196,-0.000153065206472291,-0.00366642340728962,-0.000119752971136755,9.47036674165957e-05,-5.77612039212028e-05,-0.000371805396684799,-4.37693147512519e-05,-0.00388028139647156,0.000143010693149925,-0.00356141219309247,-0.000541379632239547,-0.00356141219309247,-5.05075197221316e-06,-0.00812967756125982,-8.80165397445509e-05,-0.00698028332069844,-0.000503401404899684,-0.00208833521915075,1.82350548625365e-05,-0.00279330857288507,-0.0025418777540418,-2.50764117470936e-06,-0.000974192499941573,-3.39662650645778e-05,-0.0017498511440337,-0.00184729731473698,-0.00384204372479591,-1.55929496381546e-05,-0.00103515874535232,-6.38113906221704e-05,-0.00675351724537698,-0.00239154255248408,-0.000567760403446194,-2.84275297932624e-05,-0.000326653986454595,-0.00549657101865719,9.64701211421115e-05,9.10959570870062e-05,-0.000843679173885725,9.29124507047518e-05,-0.00149468909676376,1.58265892649112e-05,-0.0016618751161106,0.000103085907431577,0.000395379400398355,-0.00224228391904191,-0.000443117205179533,-5.05075197221316e-06,-6.6902328030416e-05,-0.00159002347063986,-0.00611911381231423,-0.00386801446538154,-0.00162690401560273,-0.000881614417053811,9.82123121708867e-05,6.65072496088825e-05,1.33834919111564e-05,-0.000111968078689628,0.000157803320125716,0.000143010693149925,-0.00316916596769268,-0.0086947441625389,-0.00396132797659909,-8.80165397436627e-05,-6.01519484986213e-05,-0.00638181894613687,-0.000971978108527338,-3.11772644776553e-05,-0.000232149860252662,-0.00159335068530719,-0.00115828359538295,-0.00207083533412611,-0.00556966104785328,-6.07646539148021e-05,-0.0025181787707238,-0.00263494264062558,-0.000126355273305734,-0.00614396505726233,-0.000971570689233037,-0.00311891601223468,-0.000119209382759777,4.36200486140237e-05,-0.0019020279769455,-0.00209653106498919,-2.67654704311227e-05,-2.50764117470936e-06,-0.000559353476910829,2.29509249436433e-05,-0.000319106257721025,-0.000726514434410408,-6.07646539148021e-05,-4.2577205084271e-05,0.000140170786285587,-0.00338776026773591,-8.4780601617318e-05,-0.000876409977366599,-9.46022409475944e-05
"15:59464428:C:T",-0.00630599333593285,2.58002790185508e-05,1.53701203799983e-05,-0.00172476747309869,-0.0050226114792693,-0.00244081840981902,-0.0015260879086938,-3.84185855422103e-05,6.22553539404436e-05,-0.00363406256545939,-0.00187752556434173,7.7336186208754e-05,-0.00204929499733275,-1.91007409684474e-05,-0.00163557309173434,-0.000270540411544395,-8.35808336940858e-06,9.24815606140328e-06,-7.72476827020085e-05,0.190623790803905,-0.00296668043912485,-0.00361776985184026,-0.00301098019793589,-0.00234937327099161,-0.000135882726853609,-1.91007409684474e-05,-2.41356891184097e-06,-0.000274564636120189,-0.00155090648251566,-0.00302815908490306,5.77772183385505e-05,-0.00360149632056128,-0.00234937327099161,-7.28317186133864e-05,-0.000127161782702778,7.33898420977042e-05,-0.00829895223657307,2.91429263903353e-05,-2.45873045505718e-05,4.16109874130655e-05,-0.00182209941301714,-1.91007409684474e-05,-4.30325108569107e-05,-3.23052286788084e-05,-0.00010169374436142,-0.00804177379342619,4.16109874130655e-05,-0.00164758123069664,-0.00245909702864733,-0.00237038708568971,6.22553539404436e-05,-3.90193938049066e-05,-0.00321925409699197,2.74095963792576e-06,-0.0031728861916589,9.27063899460734e-05,-2.27307353117823e-05,-0.00364429866239302,-2.27307353117823e-05,-8.01893966340117e-07,-0.00266083269061124,-5.97701633271441e-05,-0.00482235345612381,-0.0017436231421204,-0.0019912980993757,1.23552157962337e-05,-0.00115582219119048,5.77772183385505e-05,-1.62182078522477e-06,-1.01071441465095e-05,-2.27307353117823e-05,4.28980561073544e-05,-6.63558617119975e-06,-0.000915806107342654,-0.00181129053207574,-0.00396264616684627,-0.00110268123953805,-4.10107154102946e-05,-0.0024529888235687,-0.000109121173507809,-1.91007409684474e-05,-2.45873045505718e-05,-0.000109121173506921,6.33339309912273e-05,-0.00126794741477543,6.33339309912273e-05,-0.00126618794637157,-0.00262343830753942,-0.00461482736422703,-0.00232764161973265,6.8109581031095e-05,-0.00340954447059882,-0.00172973178543145,-0.00134213090518465,-3.26800472194577e-06,-0.000283349843113179,7.23657938532796e-05,0.000115492177640064,-0.00252870081132794,-0.00571766705118915,9.18776252447628e-05,6.43968139293349e-05,-0.00157085122459755,-0.00208877553013931,-0.00173507694107666,-0.00130838927345511,-0.0077696258999973,-0.00608980876507736,8.57206236055674e-05,-1.65476099338591e-05,-5.9770163326256e-05,-0.000715214484130478,-0.00370989407217071,-0.00101385649035368,-2.09020793144887e-05,-0.000160862529432926,-0.00254546714935344,-0.000151379241464689,-0.00196907771947963,-0.00273180610862944,-4.10107154102946e-05,-0.00165950039591767,-0.000510453271164835,-8.62125035956396e-05,-0.00307477172444415,-0.00177520620081006,-0.00277111609083747,-8.13675553192894e-05,2.91429263903353e-05,-0.000921898082518524,-0.00199385317252077,-0.00232769769500862,-1.62182078522477e-06,-0.000804238280264435,1.53701203799983e-05,-0.000193217461890605,-0.000536337272637688,-4.10107154102946e-05,-2.83866500483398e-05,-0.000906775982387309,-0.00364283459084547,-0.0010656410883092,-0.000955553967525447,-6.41880789666871e-05
"15:59464896:G:A",-0.00919570106725809,-0.00512027650129987,-0.000169348783240153,-0.00107995203610445,-0.00484715585219764,-0.00118409035350897,-0.00334553672158711,-0.000189199586027033,9.39108614508299e-05,-0.000541730629472603,-0.00381139778862005,-0.0127968396984439,-0.00797237317939725,0.000166158518097426,-0.000103546856794701,0.000358038877115607,-0.00660016013267484,-0.00544986128000868,5.57465444592786e-05,-0.00296668043912485,0.444173197780965,-0.000171767195883188,-0.00865976752315767,-0.0144073781925877,4.75125523573539e-05,0.000166158518097426,-0.000504670932699902,-0.000252703849529023,-0.00398160381397528,-0.000528613569448222,-0.000423100063144055,-0.00874111873638306,-0.0144073781925877,-3.76719965191619e-05,0.000446760041985073,-0.000447756521901432,-0.00685222032631261,-0.00154508825576993,-0.00708644853240159,-0.000144355535126373,-0.00053104351165123,0.000166158518097426,7.80933622026581e-05,3.99373872284059e-05,-0.000353529216612802,-0.00482425704353506,-0.000144355535126373,-0.000882408191707373,-0.00627430075242952,-2.35989387142865e-06,9.39108614508299e-05,8.29940812732133e-05,-0.0074677510313137,-0.00766618967846178,-0.00771933852246365,-0.00109922595586465,-0.00415961424722244,-0.00416550694355466,-0.00415961424722244,-0.002997336098578,-0.00256101945648668,8.31350777552586e-07,-0.00905209140469587,-0.00246786602232696,-0.00624566562391715,-0.00365303120026983,-0.00570472429900892,-0.000322374817740112,-0.00363262046705959,-0.00599459760756726,-0.00060113624066549,-0.000111819045465644,-0.00104677305805367,-0.00638162801736142,-0.000319683276470251,-0.0108825605734579,0.000336410031700041,-0.00110603290226496,-0.00445710015061573,-0.00276901617000558,0.000166158518097426,0.000181795317703681,-0.00181376699696312,-0.00197249431586588,-0.00433462129063322,-0.00183210250765775,-0.00330927102320366,-0.00568197906851609,-0.0018135049915502,-0.00295858104208024,-0.00304357491816543,-0.00310144964167502,2.22188516474375e-06,-0.00113199140060116,-0.00778883594183544,-0.000359706797619097,-0.00291361241935162,-0.00177018191640377,-0.0136216793024948,-0.00457768289753524,-0.000512441169217226,-0.000456926264434721,-0.00143406242929611,-0.00274448633905688,-0.00137912834534726,-0.00158800086482858,-0.00180860470155775,-0.0160037666296757,-0.000113437713705533,-0.00132840086542796,8.31350778440765e-07,-0.00237085499907108,-0.00388687699898682,-0.00150217835196242,-0.00179300040360264,-0.0017865154793224,-0.00151731353846252,9.78203875390271e-05,-0.00562561521165961,-0.00355791037826636,-0.00110603290226496,-0.00203492453275089,-0.00285897875382357,-0.00175891569596764,-0.010103938385936,-0.00178902932671043,-0.00102471351128797,0.000612811148799963,-0.0071964399793254,-0.00115378051481851,-0.00973497978202609,-0.00172729695394569,-0.00438130326922526,-0.00273670372632484,-0.00122472869613865,-0.00554751958483735,-0.000963592125318602,-0.00110603290226585,-0.00299111765797022,-0.00700391039023796,-0.000514582389161244,-0.00715749512045871,-0.00742495641857177,-0.00106986277370513
"15:59466859:A:G",-0.000676531948188952,-0.00230164320973136,-0.00616099051294583,-5.57618488778999e-05,-0.00504521282973691,-3.53453022245986e-05,-0.00573394231630253,-0.00253853284485306,5.4431856597148e-05,-0.0015036577847205,-0.00564161881200054,6.77710256100639e-05,5.34252991091222e-06,0.000189464723153066,-0.00161407313382345,-9.64190805499143e-05,-7.16395971611661e-06,8.09420638336888e-06,-0.00161308571437235,-0.00361776985184026,-0.000171767195883188,0.175932875056462,-2.11929402720301e-05,-3.71264490226508e-05,-0.000449171763569289,-1.65078928855422e-05,-1.90920633880154e-06,8.23158418183922e-05,-0.00215642936078808,0.000125559084883875,-0.00015909447635476,-0.000401120806533317,-3.71264490226508e-05,-5.91143042010245e-05,0.000247138567156746,-0.000226934699938397,-8.82687733776422e-05,2.5390065829356e-05,-0.00154375184813826,3.63294701726247e-05,-0.00180370245311767,-1.65078928855422e-05,-3.7064779569107e-05,-0.00262433742074375,-8.70210152248418e-05,-0.000273157825808834,3.63294701726247e-05,-0.00341405393127925,-0.00661773919283704,-8.66076817285233e-06,5.4431856597148e-05,-3.36508566860516e-05,3.96292252693442e-05,-0.000622348129929229,-0.0110954789078783,-0.000617642492309223,-1.96084147026099e-05,-0.00115022790581509,-1.96084147026099e-05,-2.80335034918977e-06,-2.02159103057653e-05,0.00017290564802952,-0.00348393051220253,-6.40950621395575e-05,-0.0033713650557825,1.0766081495639e-05,-0.00112363070468646,5.05261349070807e-05,-0.00420894620305123,-8.66076817285233e-06,-1.96084147026099e-05,3.74454365870136e-05,-5.6890925952402e-06,-0.000880296210065801,-8.66076817374051e-06,-0.00299436527269803,-0.00108480745465478,-3.53453022245986e-05,-0.00362059381090507,-0.000596574511734005,-1.65078928855422e-05,-2.11929402720301e-05,-0.00136623161609695,5.53738211754862e-05,-0.001323351938332,5.53738211754862e-05,5.34763932051874e-05,-0.00336135294233042,9.43990835455821e-06,-0.000259181545549936,-0.000109370847408918,-0.00248928127779724,-0.000416766479529151,-8.70210152248418e-05,-2.80335034918977e-06,-3.88098238808254e-05,-0.00269312965247437,-0.0013445081849186,-0.00115771454323976,0.000117028831823518,8.07078795315164e-05,5.63025629567449e-05,3.85452423889987e-05,8.09420638336888e-06,-0.00361667140681199,-0.000279902743757887,-0.000684773168600827,-0.00213782832598675,-0.00157419993572372,-0.000519619247310921,0.000172905648030408,-0.00220741523267964,-0.00163003663210404,-0.00116336952830398,-1.80468915891296e-05,-0.00063631553262411,-0.00554952221612215,-0.00268267806731703,-0.00215642936078808,-0.00273286261591466,-3.53453022245986e-05,3.74454365870136e-05,-0.00181543330601297,-0.00121010856473713,-0.00306793812664363,-0.0050661220299979,-0.0028066528423345,0.000163774689297291,-0.00173348101474335,-0.000897795924211131,-0.00210935763744668,-0.00181366687332218,-1.39159006717904e-06,-0.00219610454561447,1.3361459243022e-05,-0.00424920816694385,-0.0029572432614926,-3.53453022237105e-05,-5.22117583141579e-05,7.99653435814562e-05,-0.00365787280135077,-5.70978484635276e-05,-0.00553538529821029,-0.00456222025217468
"15:59467427:G:C",1.05596433686017e-05,-0.00127045168155426,8.92194438861793e-06,-3.55507906322217e-05,-8.53529382576212e-05,-2.29167140259889e-05,-7.05166270025259e-05,-0.000101661068946157,3.71812569728291e-05,-4.5132323739594e-05,-0.000263182041964072,4.66893247255129e-05,3.68850979270974e-06,-1.08106461826907e-05,-3.80573587772659e-05,-0.00107537229612653,-4.61503013227116e-06,5.47820117802189e-06,-3.67953544202493e-05,-0.00301098019793589,-0.00865976752315767,-2.11929402720301e-05,0.0876252118448635,-2.458730455146e-05,-0.000280603002253521,-1.08106461826907e-05,-9.98134032315079e-07,-0.00309110941368829,1.29845720779898e-05,9.05488144438138e-05,3.44951652930803e-05,-0.00254419920561233,-2.458730455146e-05,-0.000110643289547241,-6.84656917711024e-05,4.42622756722244e-05,-0.00277205337008013,1.70845784310814e-05,-1.37843575265251e-05,2.4625905441944e-05,-2.57502005602817e-05,-1.08106461826907e-05,-2.39908817487589e-05,-1.79335778138778e-05,-0.00363187303407564,-0.0029579145634866,2.4625905441944e-05,-4.92854444198443e-05,5.10474860959675e-05,-5.57424675395879e-06,3.71812569728291e-05,-2.18562957279289e-05,2.68520252788562e-05,1.85122446705321e-06,-6.89870450107932e-05,5.66237208863285e-05,-1.27803761511558e-05,7.1328297687856e-05,-1.27803761511558e-05,-1.81071460403359e-06,-0.00697879071290153,-3.31407289042573e-05,-0.00515402334458237,-0.00157212868059187,2.47184404802425e-05,7.22210661852074e-06,-0.000952202023428939,3.44951652930803e-05,-8.99621857897159e-07,-5.57424675395879e-06,-1.27803761511558e-05,2.53775089626984e-05,-3.66819194308476e-06,-0.000701572258252625,-5.57424675484697e-06,-0.00501151248444742,-2.39908817487589e-05,-2.29167140259889e-05,-1.1603474572297e-05,-5.91070636266622e-05,-1.08106461826907e-05,-1.37843575265251e-05,-5.91070636248858e-05,3.78317442848441e-05,3.58553596404576e-05,3.78317442848441e-05,3.65225144252079e-05,7.11647463695897e-05,6.35576771124136e-06,-0.00293975795174983,-0.0013100927361851,-0.000114230975786889,3.23876209673557e-05,-5.50057481696342e-05,-1.81071460403359e-06,-2.50790646072474e-05,4.36358346975751e-05,-0.00190545684358856,-0.00787022261957304,8.37024367639216e-05,5.60975201766567e-05,3.84741295098578e-05,2.61194881687743e-05,-0.00266901069172132,-0.00156573452066322,6.29854876228464e-05,5.66237208854403e-05,-0.00774995077831075,5.22211416242868e-05,1.86738201879422e-05,-3.31407289033692e-05,-0.000206761752722606,-0.00348132188485462,-0.000301925949119486,-1.17892195001801e-05,-8.53529382576212e-05,-1.90055262025979e-05,-8.03642300528651e-05,1.29845720779898e-05,7.99697432531943e-05,-2.29167140259889e-05,2.53775089626984e-05,-0.00173197690947813,-4.71501843319899e-05,-0.00130743802091082,-0.00117066943279642,-4.27385781245349e-05,-4.46678024541569e-05,1.70845784310814e-05,-4.84160678535517e-05,1.21319449224444e-05,-9.53982515916607e-06,-8.99621857897159e-07,-0.00208025368267961,8.92194438861793e-06,-0.000328983092957813,-0.000242462534695065,-2.29167140259889e-05,-1.58317910168293e-05,5.55646867175241e-05,-0.00010685319633108,-3.66216099534356e-05,-0.000341044653051625,-3.54461511440363e-05
"15:59469913:A:C",0.000153743151525276,-0.00678351560691981,1.53701203799983e-05,-0.00239150021976009,-0.00145776860361391,-0.000890754858967391,-0.00163340849745452,-0.00384603578703846,6.22553539404436e-05,-0.000623500779886044,-0.00054007909478937,7.7336186208754e-05,6.04484786936865e-06,-1.91007409684474e-05,-0.00248785448738609,-0.000266410656296401,-8.35808336940858e-06,9.24815606140328e-06,-0.00248435426745619,-0.00234937327099161,-0.0144073781925877,-3.71264490226508e-05,-2.458730455146e-05,0.238902426664489,-0.000587340619334853,-1.91007409684474e-05,-0.00195406963660449,-0.00208340039602817,-0.00186191608520314,0.000141451937221149,5.77772183394387e-05,-0.0133722187472123,0.00213196938809634,-0.000589978239956324,-0.00012716178270189,7.3389842096816e-05,-0.0198304613272513,2.91429263912235e-05,-2.458730455146e-05,4.16109874130655e-05,-0.00224128438425186,-1.91007409684474e-05,-4.30325108560226e-05,-0.00247462598734405,-0.000101693744360531,-0.020801972008246,4.16109874130655e-05,-0.00251716407498659,-5.44399838080523e-05,-0.00226322545141411,6.22553539404436e-05,-3.90193938049066e-05,4.54146392083743e-05,2.74095963881393e-06,-0.00610788496087045,9.27063899469616e-05,-0.00158478776027859,4.90484212045672e-05,-0.00158478776027859,-0.00232838385879752,-0.00217761984024545,-5.97701633271441e-05,-0.00153196108613596,-7.49499264030007e-05,-0.000437607881111468,1.23552157962337e-05,-0.00214487953895404,5.77772183394387e-05,-1.62182078522477e-06,-3.17799787197259e-06,-0.000125524775143937,-0.00155233876164296,-6.63558617119975e-06,-0.00257895842973799,-1.01071441473977e-05,-0.00314675507103956,-4.30325108560226e-05,-0.000890754858967391,-0.0018035217223531,-0.000109121173506921,-1.91007409684474e-05,-0.00290381856366118,-0.00160064162797724,-0.00165092569077885,-0.00116078578049983,6.33339309921155e-05,-0.00115902631209597,-4.87203875012554e-05,-0.00118154340299714,-0.002215730299719,-0.00264167893901224,-0.00430279069048733,-0.00536647720941108,-0.00144945149394538,-0.00232838385879752,-4.5085449206006e-05,7.23657938541677e-05,-0.00305485887615031,-0.00688428527990936,-0.000474164278355893,-0.000712334162961348,6.43968139284468e-05,-0.00328782865447419,-0.00228278284269212,-6.9935062561477e-05,-0.00671656606922966,-0.000518146584510326,-0.00851364596773418,-0.00140856337701578,-0.000458636776426324,4.54650578758375e-05,-0.000530544622457718,-0.00121514866342665,-0.00232937681824641,-0.00139103856863088,-0.000778162908491531,-3.71825689446936e-05,-0.00691859565727171,2.19640042526947e-05,-0.00283912669738839,-0.000890754858967391,4.28980561064662e-05,-0.00386443994633812,-8.62125035956396e-05,-0.00160466180528296,-9.07029631469491e-05,-0.00010703982599658,-8.13675553192894e-05,-0.00298514724205212,-8.86919382221407e-05,2.04608365246273e-05,-0.00193550552690969,-1.62182078522477e-06,-0.00208136497880318,1.53701203799983e-05,-4.6749833359172e-05,-0.00272052114039711,-0.000890754858966503,-0.00653257435193666,9.10366998443379e-05,-0.000486208201983196,-6.64485424977102e-05,0.000178156267723217,-6.41880789666871e-05
"15:59470217:T:C",-0.00118109307131942,-0.00198012464918129,4.45737953045366e-05,-0.000521296457279163,-0.000425526035225943,-0.000117394337121546,0.00121089857398982,-0.000116107404020127,0.000190344852894597,-0.000482901143413095,0.000118979157414323,0.000240697014850966,1.27056235079692e-05,0.00146473057835195,-0.000441162200162104,0.000671218829628728,-2.75890487912989e-05,2.35892538897886e-05,-0.000849505525956751,-0.000135882726853609,4.75125523573539e-05,-0.000449171763569289,-0.000280603002253521,-0.000587340619334853,0.0895160642298736,-5.53191137857567e-05,-0.000745299690739998,0.000600682239033645,5.93216841755506e-05,0.000474781164565563,-0.00123276698404418,-0.000330778473323967,-0.000587340619334853,-0.0011565808405658,0.00122498318648567,-0.00136379819690369,0.000257666602763607,8.47959501077966e-05,-7.27774424076344e-05,0.000121245348937649,-0.000588716796905864,-5.53191137857567e-05,-0.000123589894052145,-9.70733349676678e-05,-0.000282701191826717,0.000123442483996428,0.000121245348937649,-0.000487155387056681,-0.000955703699258237,-0.00150067478189175,0.000190344852894597,-0.000111273365306808,0.000135407491159256,1.54796138485125e-06,-0.0052700086017996,0.000294718406681937,-6.68874771001526e-05,-0.00171136102132152,-6.68874771001526e-05,-1.08361134545376e-05,-0.00211153612966619,0.00137054899460498,-0.0025098238459913,-7.34542401623628e-05,-0.000590959191939078,3.42088156983777e-05,-0.000389246163855717,0.000172814749856087,-5.38560156293499e-06,-0.00295092806848896,-6.68874771001526e-05,0.000126024100082667,-2.19366142273358e-05,-0.00044246136220405,-3.33112868293739e-05,-0.000254827960023185,-0.000123589894052145,0.000466416670120928,-0.000968367633360501,-0.000297702362683339,0.00146473057835195,-0.000280603002253521,0.0011281302371442,-0.00404742209375453,-0.00237937044935865,0.00019459584006043,0.000186042208697224,-0.0010397559314006,2.89314396324514e-05,-0.000439274473746032,-0.00106891919638752,-0.000199251326926664,0.000432845318766972,-0.000296138821727077,-1.08361134545376e-05,-0.000129861405860687,-0.0047830769248165,0.000372792467909555,-0.00352718736969582,0.000442294965059098,0.000291069438694613,0.000198796094330156,0.000130744459850618,2.35892538897886e-05,-0.00602699345498969,0.000969865735481967,-0.00383799854448519,-0.000970694537018701,-0.00277263502541558,-0.000831621080473965,-0.000167872192105456,-0.00656311471488191,-0.00141883824737832,-0.000654922803711599,2.53555882245848e-06,-0.000425526035225943,-0.000103338248712781,-4.84237201447968e-06,-0.000799953384506225,-0.013024917467094,0.000459936465651012,0.000126024100082667,-0.00406378759663273,0.000445546350552384,-0.00160523274924174,0.000203888493014226,-0.000376425491298349,-0.00022512521951068,8.47959501077966e-05,0.000246953200222499,-0.000756631151459075,-0.000539360616930828,-5.38560156293499e-06,0.000179385124784659,0.000356820796982404,-0.00107420136805381,-0.00499189844379266,0.000459936465651012,-8.47754605315387e-05,-0.00251671372012297,-0.000157892805904503,0.000139600274507323,-0.000792561264230329,0.000332560808431914
"15:59471158:C:T",-0.000362083076552722,0.000176770293775164,7.11818869802983e-06,-2.74908600426116e-05,-6.44631284769659e-05,-1.7903192986779e-05,-5.35980392522006e-05,-1.65078928855422e-05,3.01882872415504e-05,7.65572470715625e-05,-0.000306619360589622,-0.00282966021054332,2.9770411638097e-06,-8.50887695591496e-06,-2.9375926131614e-05,-4.62835195191857e-05,-3.61447029373352e-06,4.38989509099486e-06,-2.84275297932624e-05,-1.91007409684474e-05,0.000166158518097426,-1.65078928855422e-05,-1.08106461826907e-05,-1.91007409684474e-05,-5.53191137857567e-05,0.00323213756458074,-7.06742207867705e-07,-8.29435385227839e-05,1.0426605403957e-05,7.63694482008859e-05,2.79801029705595e-05,7.85340010045488e-05,-1.91007409684474e-05,-2.96236307253395e-05,-5.21841990277494e-05,3.6124896215739e-05,0.000205170585853232,1.37058518845379e-05,-1.08106461826907e-05,1.98590555458011e-05,-1.99865613570438e-05,0.00205388993281996,-1.87240526248189e-05,-1.40079136015103e-05,-4.21586585925837e-05,0.000203076780260325,1.98590555458011e-05,-3.78425510838554e-05,4.18733513489755e-05,-4.36298639083788e-06,3.01882872415504e-05,-1.7091781562506e-05,2.16644779129638e-05,1.53015108672605e-06,-1.5941731739133e-05,4.65737659736121e-05,-1.00344951761144e-05,5.94136706419945e-05,-1.00344951761144e-05,-1.42075762887828e-06,-2.49511963623661e-06,-2.57497253928207e-05,9.75883082352524e-05,-3.13087908399012e-05,2.00180074036993e-05,5.7699000644007e-06,-5.85682337916893e-05,2.79801029705595e-05,-7.06302828668015e-07,-4.36298639083788e-06,-1.00344951761144e-05,2.0467961396875e-05,-2.87469436344168e-06,-6.67369121263306e-05,-4.36298639261423e-06,0.000199194199851149,-1.87240526248189e-05,-1.7903192986779e-05,-9.04662089595831e-06,0.00130549262204482,-8.50887695591496e-06,-1.08106461826907e-05,-4.52582291190495e-05,-0.00547638096745295,2.90971600112044e-05,3.0724407713123e-05,2.9645908089293e-05,5.91747999871828e-05,5.08393166676058e-06,-2.04775281424929e-05,3.34578844070066e-05,-8.49561626523609e-05,2.62538401933909e-05,-4.21586585925837e-05,-1.42075762887828e-06,-1.95545265011532e-05,3.56042640987653e-05,5.99482183005762e-05,1.41831658453384e-05,7.02107751369141e-05,4.61283434463056e-05,3.12543772285068e-05,2.10697272287064e-05,4.38989509099486e-06,-2.93759261325022e-05,5.20623169784074e-05,4.65737659727239e-05,-3.10094630942004e-05,4.28590600547452e-05,-0.000112558887596315,-2.57497253919325e-05,-0.000207892204093341,0.000448890668802271,6.08215115036614e-05,-9.26729003491999e-06,-6.44631284769659e-05,-1.48312311782917e-05,-6.08008820348616e-05,1.0426605403957e-05,6.69267462267698e-05,-1.7903192986779e-05,2.0467961396875e-05,0.00013666905313503,-3.63348407663722e-05,-4.73471173858542e-05,0.000201087181969761,-3.29659457642961e-05,-3.4483739232094e-05,1.37058518845379e-05,-3.72767989436085e-05,9.74702235634339e-06,-7.44762585647152e-06,-7.06302828668015e-07,5.45913146634547e-05,7.11818869802983e-06,0.000581307205029802,-8.27143649466677e-05,-1.79031929858908e-05,-1.23904191751123e-05,4.5677706259184e-05,-7.97939076671028e-05,-2.83762147370581e-05,0.000669627031310682,-2.74904783212904e-05
"15:59472752:T:C",8.73809229533506e-05,-0.00357840538238463,1.02097748033714e-07,-0.00500012565579944,-2.08224619457908e-05,-2.21586866810952e-06,-0.00241596266270871,-1.90920633880154e-06,-0.00476904222339858,-0.0014728380223179,-0.000446164222150713,-0.000661489804462789,-0.000324159834583782,-7.06742207867705e-07,-0.0138385219133763,-0.00154874345465483,-2.14497904771349e-07,1.17158705847942e-07,-3.37059491686276e-05,-2.41356891184097e-06,-0.000504670932699902,-1.90920633880154e-06,-9.98134032315079e-07,-0.00195406963660449,-0.000745299690739998,-7.06742207867705e-07,0.168548372537729,-0.00144578159992559,-1.34072122293105e-08,-2.32348539652705e-05,-2.24542017246421e-06,-0.000696396225850826,-0.00195406963660449,-0.00193432779916858,-0.000157844020919562,-4.23486217648872e-06,-0.00044140830519801,-2.10452888893542e-07,-9.98134032315079e-07,-8.65025372220884e-07,-0.00712251283251497,-7.06742207867705e-07,-0.00363579373224088,-1.47609140999094e-06,-0.00266032985762799,-0.000454060501760001,-8.65025372220884e-07,-0.00445453352191016,-6.06703844496792e-06,-2.72454911964815e-07,-0.00476904222339858,-2.0587637905578e-06,-0.00261149465969801,-0.00164742303952803,-0.00097782257284118,-7.61745209487685e-06,-8.94951435626012e-07,-0.00561046147013222,-8.94951435626012e-07,-7.14034724680346e-08,-4.79826833217345e-05,-4.06772319738735e-06,-0.00398393653286666,-0.00206753759603373,-0.00365844194818354,-0.00167170162138852,-1.74380791992945e-05,-0.00312145841114653,-3.34080407782267e-08,-2.72454911964815e-07,-8.94951435626012e-07,-9.43637105343953e-07,-0.00232710705916617,-2.21856822282263e-05,-2.72454913741171e-07,-0.00382045268878883,-0.00363579373224088,-2.21586866810952e-06,-0.00206126637885085,-0.00488472255027261,-7.06742207867705e-07,-9.98134032315079e-07,-0.000910482645697819,-2.81159455894908e-06,-0.00409487483129833,-0.000479505947429182,-2.58193004221141e-06,-0.000918696669238273,1.19144409893579e-07,-1.83149635928359e-05,-3.56016878289012e-06,-0.00222760413468759,-0.00281635344326059,-0.000301298828532914,-7.14034724680346e-08,-2.55256731573894e-06,5.55290112949081e-05,-0.000393758255591514,-0.00526139805649617,-0.000380561008047842,-7.46329595369133e-06,-2.92784336863861e-06,-1.02427589698806e-06,1.17158705847942e-07,-0.00067609848818595,-9.9176959427183e-06,-7.61745209487685e-06,-0.00309519953820914,-0.00125511490002683,-0.0011306782706999,-0.000176001537258941,-0.00200549823717555,-0.000256456772341096,-0.00373689682553202,-7.97884676551064e-07,-0.00120235254209256,-0.00440941790997229,-0.000214921768791676,-0.0012645573882093,-0.00409029517484072,-2.21586866810952e-06,-0.00135125098467181,-8.18116146943382e-05,-0.000455678476936505,-0.00177982417928124,-0.00108187550621386,-0.00187331885221287,-0.000169352552835456,-2.10452888893542e-07,-0.00122598712654387,-4.82451266963224e-05,-0.000795404987411708,-3.34080407782267e-08,-0.000663833650837553,1.02097748033714e-07,0.00052798890447292,-0.00576153566999649,-2.21586866810952e-06,-1.22364635668504e-06,-7.30887313959983e-06,-0.00136934581341652,-0.00138885602032968,-0.000219799636814955,-0.000301281286274602
"15:59476088:A:C",-0.00382905152740598,-0.00569122578302172,-0.00195224217461121,-0.000391507001688218,-0.000875519563470206,0.000790397362747441,-0.000153213686676423,-0.000214562248271655,-0.000550148469706357,-0.00144679618924393,-0.00213247385211845,0.000337042533137932,1.33633092396224e-05,0.000416544108267303,-0.00141193505069381,0.00167832754377439,-4.47227856970045e-05,-0.00233726426731096,-0.000126452294281876,-0.000274564636120189,-0.000252703849529023,8.23158418183922e-05,-0.00309110941368829,-0.00208340039602817,0.000600682239033645,-8.29435385227839e-05,-0.00144578159992559,0.175432829468739,-6.65763056284518e-05,-0.00224288978853959,5.70861245030585e-06,-0.00162947701313643,-0.00208340039602906,-0.000552537569872058,0.000993478232057754,-5.88287339287064e-06,0.000788611152855001,0.00012079995866987,-0.000111771355673085,-0.00206622699380521,-0.00203737059357145,-8.29435385227839e-05,-0.000940129329701556,-0.000190346654809659,-0.000595085360886927,0.000843358273270756,-0.00206622699380521,-0.00146665544940117,-0.00226591123404418,-0.000203756430184221,-0.000550148469706357,-0.000168616473709804,0.00019235229293546,-6.98865369050949e-05,-0.000883806381414498,0.000408894854138531,-0.000102009674864512,-0.00190235027302776,-0.000102009674864512,-0.00194948117082649,-0.00374197370706941,0.000265019416120005,-0.00106437314415642,-0.00289867926709153,-0.00356587258376351,-0.00609552612416842,-7.45903003904758e-05,5.70861245030585e-06,-8.66564133605863e-06,-0.00324096689566122,-0.0012498358618398,-3.25939741241399e-05,-0.00273740043690474,-0.000181106928091701,-0.00642022155357846,-0.00012699182965914,-0.000974849059769411,-0.000613102908249452,-0.00062749705170706,-0.000668209735719572,0.000416544108267303,0.000101098488745066,-0.00245762050782794,-0.000818758888327054,-0.000488566831650772,-0.000818758888327054,-0.00349554118086015,-0.000134463799577489,-0.00195588346771025,-0.00643629319648387,-0.0019220738900394,-0.00569772628988474,-0.000191211306002081,-0.00146672627513134,-1.74675444322148e-05,-0.000465554671930768,5.10983738131188e-05,-0.002948390469383,-0.00491063876961562,-0.000380160971621635,-0.0013105203845809,-0.000845787669053522,-0.000996134559658302,-0.00184835491294599,-0.000232377664363348,-0.00155123007676572,-0.000572932757469502,-0.00187144365505665,-0.00150118368423158,-0.000253000677457926,0.000742028369900893,-0.00735791699296051,-0.000815075360488748,-0.00311322858959961,-0.00157486664829243,-0.00118902182881797,-0.00294820549085451,-0.00223283873011049,-0.000426269104068844,0.000569904928481968,-0.000629562843090348,-0.00167182091715823,-0.00161257036611584,-0.000701255088241481,-0.000797751776011602,-0.00968756762857126,-0.000479515956734566,0.000673596283150779,-0.00248325904645341,-0.000904710682374521,5.75010792305264e-05,-6.88152383077067e-07,-8.66564133605863e-06,-0.000213970647302553,0.000353540757210169,-0.00208355157068851,-0.00103467810427738,-0.000629562843090348,-0.000131769945701521,-0.000630817431707342,-2.25601282339838e-05,-0.000978705869512098,-0.00816456927153641,-0.000781394686788062
"15:59477398:G:A",-0.00270433073847087,-0.000147027604134653,-9.22478581433239e-06,-0.00214374578301957,-0.00437432561023066,-0.00241616379781462,-0.0018529874243578,1.91948211689663e-05,-4.13498783995436e-05,-0.00150291728974228,0.000121567196985417,-5.32572638389794e-05,-4.31045924109696e-06,1.0426605403957e-05,3.32244986465113e-05,-0.000145825110924314,4.16472543740554e-06,-5.97713976357994e-06,-0.00207083533412611,-0.00155090648251566,-0.00398160381397528,-0.00215642936078808,1.29845720779898e-05,-0.00186191608520314,5.93216841755506e-05,1.0426605403957e-05,-1.34072122293105e-08,-6.65763056284518e-05,0.133874929132745,-0.00379833737396407,-3.84883042618966e-05,-0.00248651388602372,-0.00186191608520314,3.21096255202491e-05,5.65977095714487e-05,-5.05762440541346e-05,-0.00468210259939017,-1.81615566576809e-05,1.29845720779898e-05,-2.6892955726332e-05,2.29018764263955e-05,1.0426605403957e-05,2.22076539859728e-05,1.6490979553474e-05,4.66852191181033e-05,-0.00449138244614122,-2.6892955726332e-05,4.21039476634633e-05,-0.00311545398085755,-0.00193622227735357,-4.13498783995436e-05,2.0465633446598e-05,-2.91689516682681e-05,-2.61432466608369e-06,-0.00550264004453549,-6.62473600510083e-05,1.2125179062572e-05,-0.00302239796716464,1.2125179062572e-05,-3.31912693143366e-05,-0.00211786596062158,3.01097891526325e-05,-0.00258594530215106,-0.00214992717772411,-2.83648555026161e-05,-7.61503153068332e-06,6.20879994528423e-05,-3.84883042618966e-05,8.19219116543479e-07,5.01862105917183e-06,1.2125179062572e-05,-2.76587667658035e-05,3.31791029406503e-06,6.91184534042932e-05,0.000121339125085385,-0.00214673778796914,-0.00155049684933939,2.13333900900281e-05,-0.00200130195368597,4.99937227766978e-05,1.0426605403957e-05,1.29845720779898e-05,4.9993722777586e-05,-4.20481641061343e-05,-0.000949476342144706,-4.20481641061343e-05,-0.000949717262168193,-8.77861481427544e-05,-0.00381610611600713,-0.00456426669200649,-4.70689068050589e-05,-0.00268347548814774,-0.00140085852024541,4.66852191181033e-05,1.64522945400591e-06,-0.00025294009352006,-4.98889877791342e-05,-8.88446573128476e-05,-0.00601106455659117,-0.000105755406460517,-6.56434702444031e-05,-4.27397932858398e-05,-0.00122492293745768,-5.97713976357994e-06,-0.00214780626980637,-0.00106741042840763,-0.00843919073631394,-0.00424765024028861,-6.1237744806597e-05,-3.19744755818974e-05,3.01097891535207e-05,-0.000750144706407774,2.90767191497565e-05,-0.00215666602289488,1.12725443024431e-05,6.7293680574565e-05,-0.00207411182723671,6.39553358352529e-05,-1.41591919877726e-05,-0.00347183205110113,2.13333900900281e-05,-0.00131136529459397,-0.000622270296534388,4.11497420511608e-05,-0.00184677245495468,-0.0029550187844718,-0.00223530427271168,3.93516216607992e-05,-1.81615566576809e-05,4.20575777848597e-05,-0.00160815418174654,8.50648831907108e-06,8.19219116543479e-07,-0.000190561626658869,-9.22478581433239e-06,-0.00110922850009842,-0.000292726851614855,2.13333900900281e-05,1.47238832095553e-05,-0.00109912749312624,-0.00293705141944578,3.27821040144727e-05,-0.00130365716685965,3.18850857148334e-05
"15:59478262:T:C",-0.0011138039671641,-0.00015709536394537,-6.8899391917121e-05,-0.00267749862792055,0.000550777772137856,0.000157584307205028,0.000445785621519867,-0.00124922474107336,-0.000292064131125258,-0.00383705727442596,-0.00199378072020506,-0.000369970320650559,-0.00109551866100155,7.63694482008859e-05,0.000229266750661594,0.000379493383523055,2.17564705078388e-05,-5.2956478249655e-05,-0.000149207814756913,-0.00302815908490306,-0.000528613569448222,0.000125559084883875,9.05488144438138e-05,0.000141451937221149,0.000474781164565563,7.63694482008859e-05,-2.32348539652705e-05,-0.00224288978853959,-0.00379833737396407,0.161245403986497,-0.00450717267274214,-0.00116260751534281,0.000141451937221149,-0.000135372042436188,0.000454399789095561,-0.00476991215735634,-0.00424908161563575,-0.000136022867761376,-0.00040094772488608,-0.000742673669536842,0.000146875763961773,7.63694482008859e-05,0.0001627310411072,-0.00135719474573559,-0.00238248388296824,-0.00443959260827675,-0.000742673669536842,0.00030496995974616,-0.00462758569249644,-0.00289853790008809,-0.000292064131125258,0.000152494093579314,-0.000622088527095777,-0.000486429912628594,-0.00166990872545769,-0.000450826346908961,8.57697997043161e-05,-0.0021535838558373,8.57697997043161e-05,8.55725067339108e-06,-0.00224745364088896,0.000228366819879255,-0.00125354166922742,-0.00690690247888615,-0.00377400020047158,-6.10177643576293e-05,-0.00184175216764082,-0.000832260628227388,4.2549383154622e-06,-0.00125247908540249,8.57697997043161e-05,-0.00167211327870298,1.73071948577075e-05,-0.00234112778089912,2.62564088808759e-05,-0.00158673436531442,-0.00238698742947019,0.000157584307205028,-0.000811480673045928,0.000392032189618696,7.63694482008859e-05,-0.00293416659973555,0.000392032189618696,-0.000294759176862947,-0.000286580872892905,7.58608297335428e-06,-0.000289338207723588,-0.00483492856167356,-5.70099601491236e-05,0.000740750328284356,-0.000913628622650542,-0.00197591191996338,-0.00286727373214557,-0.00155227371199462,-0.00161549371848313,0.000167935240130923,-0.000358261553047967,-0.000111962230486817,-0.00416187890039499,-0.000321940199316195,-0.000255533338143543,0.000516215953420662,-0.000208937041859869,-0.00242777213072198,-0.00293396758304354,-0.000846294614098575,-0.000450826346908961,-0.00204883793099864,0.00119559739327624,-0.00468706197061319,0.000228366819880144,-0.0013513018686746,-0.00168334475570209,-0.00216158768137298,8.10436345197729e-05,0.000550777772137856,0.000115268503284582,-0.000135653161334126,-0.000567944364171957,-0.00107587824868371,0.000157584307205028,-0.000205713251930639,-0.00284118381353604,0.000315869886398978,-0.00252965386557058,-0.00303466600969182,-0.00423074565836501,0.000303980343824506,-0.000766228519537115,-0.000710593343022481,-0.00350939170562281,-0.000366158944630435,4.2549383154622e-06,0.000645498161901514,-0.000737945183354682,-0.00988924114890111,-0.000175325562923767,0.000157584307205028,-0.00149415012080034,-0.000459180607849774,-0.00326493274685369,-0.000595097913246967,-0.00634877664235134,0.000239433590079052
"15:59478564:A:C",-0.00255100913820083,-0.00320152679408103,-0.00100023019291129,-0.00263701064808508,0.000199706333848582,5.80157967826622e-05,-8.63179070860198e-05,5.05261349070807e-05,-0.000105274050636872,-0.000562260289295402,-0.00466038630107679,-0.000133886238206316,-1.26653592413817e-05,2.79801029705595e-05,9.00084366888265e-05,-0.00207174818021727,-0.00160367756733493,-1.66758066191264e-05,-0.0025418777540418,5.77772183385505e-05,-0.000423100063144055,-0.00015909447635476,3.44951652930803e-05,5.77772183394387e-05,-0.00123276698404418,2.79801029705595e-05,-2.24542017246421e-06,5.70861245030585e-06,-3.84883042618966e-05,-0.00450717267274214,0.135436753614677,-0.000116843929115262,5.77772183394387e-05,-0.00141855994598838,0.000164353219257229,-0.000233743104173456,-0.000540903734854936,-4.78019224345871e-05,3.44951652930803e-05,-0.00366827519256496,6.02480748463918e-05,2.79801029705595e-05,6.03234670624175e-05,4.35082968222034e-05,-0.00209575152212249,-0.000490725756728594,-0.00366827519256496,0.000116715259817823,-0.00375286385316365,1.23921826986617e-05,-0.000105274050636872,5.57318617593339e-05,-7.55141195778464e-05,-0.00123354852064228,-0.000711027332557013,0.000385672820073957,3.2300767919935e-05,-0.000501186934751097,3.2300767919935e-05,4.0438296879941e-06,-0.00334354453489905,8.32502487249087e-05,-0.00208227558093466,9.53432220400785e-05,-0.000299175500377835,-2.0600535166615e-05,0.000181537394889908,-0.00207813240613319,2.01133441724011e-06,-0.000191026244810821,3.2300767919935e-05,-7.21214623853328e-05,-0.00164979890999017,0.00020573596189255,1.23921826977735e-05,-0.0056344176273786,6.03234670624175e-05,5.80157967826622e-05,-0.000183348171450604,0.000142933389605915,2.79801029705595e-05,-0.00255840616728609,0.000142933389605915,-0.000106786367349621,-0.00474185232945246,-0.000106786367349621,-0.000103745054489401,-0.000999743293757405,-1.86487142643799e-05,-0.00017624647739467,-0.000998195658451273,-0.000132768449760512,-0.00110325677165601,-0.0011691875439821,4.0438296879941e-06,6.26552398630409e-05,-0.000126811500696711,0.000187457225005794,-0.00400897042470127,-0.000194347234976355,-0.000163027487132261,-0.000108282275211202,-7.38271003930535e-05,-0.00325942873472584,9.0008436686162e-05,-0.00181358242970298,-0.000164245645297711,-0.00134198621107728,-0.000154103394258698,-0.00028286019589352,8.32502487257969e-05,-0.00153183984624761,-0.00482893580100541,-9.13837935216932e-05,3.01291974151852e-05,0.000199706333848582,-0.00266173179248419,-0.00192103909890839,-3.84883042618966e-05,-0.00024590653654144,5.80157967826622e-05,-7.21214623853328e-05,-0.00467153368259332,-0.00158564748153633,-0.00404392101402795,-0.00378346620433234,-0.00137095992782754,0.000110530125205344,-0.000985852696005374,-0.00177511318973256,-3.65632069669886e-05,2.11070363240751e-05,2.01133441724011e-06,-0.00357451615993476,-2.44422457136295e-05,-0.00409571295661593,-0.00358230772876844,5.80157967826622e-05,3.89538802263445e-05,-0.0053511342888557,-0.00092834112339979,-0.00196813677851804,-0.00437497884037974,8.81067116651479e-05
"15:59480141:G:A",-0.00895825989239452,-0.00567828564120987,-0.00551727735540997,-0.000626803852778135,-0.00459225768811766,-0.00120679069239316,-0.00262090099614509,-3.05052763001079e-05,0.000202681241361802,-0.00059328295314387,-0.00287613840827117,-0.0135288155581712,-0.00848863871838557,7.85340010045488e-05,-0.000180815855624239,3.88452590835975e-05,-0.00974276469679936,-0.00575595137972584,0.000120146417386557,-0.00360149632056128,-0.00874111873638306,-0.000401120806533317,-0.00254419920561233,-0.0133722187472123,-0.000330778473323967,7.85340010045488e-05,-0.000696396225850826,-0.00162947701313643,-0.00248651388602372,-0.00116260751534281,-0.000116843929115262,0.450051844892584,-0.0133722187472132,4.89459867099029e-05,4.43190710681662e-05,-0.00135725404198528,-0.00980962846688849,-0.00150965546595661,-0.00662811444966049,-0.000353053437508244,-0.000709351354047261,7.85340010045488e-05,8.80078952265606e-05,-1.07189709019906e-05,6.8035984015502e-06,-0.00670549546242682,-0.000353053437508244,-0.00105204213546983,-0.00722978281116138,1.86511069975026e-05,0.00020268124136269,-2.10612267439458e-05,-0.00803460796146904,-0.00685294778728718,-0.00662251004151493,-0.000665029374499859,-0.0042748302073079,-0.00215427899943066,-0.0042748302073079,-0.0028445926657179,-0.00199381099191065,-0.000125223076839376,-0.00856047229632129,-0.00203889960742876,-0.00588227133902919,-0.00389769628186354,-0.00546538162149757,-0.000266595573833683,-0.00379789535289099,-0.00618987411829952,-0.000535684653231172,-0.000148648884736424,-0.000848197909617099,-0.00606124609410852,-0.000278169355108382,-0.0107132827885796,0.000156172736849314,-0.00114359849361367,-0.00192584058284462,-0.00409183979075944,7.85340010045488e-05,9.23544554050082e-05,-0.00198476297537997,-0.00207809411372306,-0.00417260466402336,-0.00189426165256545,-0.00337453009182642,-0.00523403463376004,-0.00296969863838648,-0.00182177169557418,-0.0029904877184479,-0.00256619539580116,-0.000130199128937303,-0.00151795758999818,-0.00798165766318704,-0.000367672095132221,-0.00342484561682488,-0.00247484725784597,-0.0118282552983109,-0.00459790990653008,-0.000813126818431265,-0.00026874862062698,-0.00128525355045905,-0.00250610797108131,-0.00150297184983028,-0.00283706043028964,-0.00194329279683281,-0.0146217077852708,-0.000340569337221819,-0.000584958137057168,-0.000125223076839376,-0.00169204774357556,-0.00446175272629912,-0.00148348279819199,-0.0017418244705123,-0.00208529997985796,-0.00260691203522923,0.000162233417211333,-0.00597331841406046,-0.00393856501661194,-0.00114359849361367,-0.00186341673840396,-0.00470039082675422,-0.00173416186771824,-0.011272879420543,-0.000850459501421152,-0.0012467613040914,0.000253420249221925,-0.00737931720352414,-0.00149852415905283,-0.00905096057440735,-0.00192874912353025,-0.00424283549071092,-0.00257438520582376,-0.0012546778938809,-0.00534767382559131,-0.00097165436812352,-0.00114359849361367,-0.00274020266982156,-0.00746471185140418,-0.000452396668643829,-0.00777188069196288,-0.00771002110616603,-0.000956030511066075
"15:59482352:C:T",0.000153743151525276,-0.00678351560691981,1.53701203799983e-05,-0.00239150021976009,-0.00145776860361391,-0.000890754858967391,-0.00163340849745452,-0.00384603578703846,6.22553539404436e-05,-0.000623500779886044,-0.00054007909478937,7.7336186208754e-05,6.04484786936865e-06,-1.91007409684474e-05,-0.00248785448738609,-0.000266410656296401,-8.35808336940858e-06,9.24815606140328e-06,-0.00248435426745619,-0.00234937327099161,-0.0144073781925877,-3.71264490226508e-05,-2.458730455146e-05,0.00213196938809634,-0.000587340619334853,-1.91007409684474e-05,-0.00195406963660449,-0.00208340039602906,-0.00186191608520314,0.000141451937221149,5.77772183394387e-05,-0.0133722187472132,0.238902426664491,-0.000589978239956324,-0.00012716178270189,7.3389842096816e-05,-0.0198304613272513,2.91429263912235e-05,-2.458730455146e-05,4.16109874130655e-05,-0.00224128438425186,-1.91007409684474e-05,-4.30325108560226e-05,-0.00247462598734405,-0.000101693744360531,-0.020801972008246,4.16109874130655e-05,-0.00251716407498659,-5.44399838080523e-05,-0.00226322545141411,6.22553539404436e-05,-3.90193938049066e-05,4.54146392083743e-05,2.74095963881393e-06,-0.00610788496087045,9.27063899469616e-05,-0.00158478776027859,4.90484212045672e-05,-0.00158478776027859,-0.00232838385879752,-0.00217761984024545,-5.97701633271441e-05,-0.00153196108613596,-7.49499264030007e-05,-0.000437607881111468,1.23552157962337e-05,-0.00214487953895404,5.77772183394387e-05,-1.62182078522477e-06,-3.17799787197259e-06,-0.000125524775143937,-0.00155233876164296,-6.63558617119975e-06,-0.00257895842973799,-1.01071441473977e-05,-0.00314675507103956,-4.30325108560226e-05,-0.000890754858967391,-0.0018035217223531,-0.000109121173506921,-1.91007409684474e-05,-0.00290381856366118,-0.00160064162797724,-0.00165092569077885,-0.00116078578049983,6.33339309921155e-05,-0.00115902631209597,-4.87203875012554e-05,-0.00118154340299714,-0.002215730299719,-0.00264167893901224,-0.00430279069048733,-0.00536647720941108,-0.00144945149394538,-0.00232838385879752,-4.5085449206006e-05,7.23657938541677e-05,-0.00305485887615031,-0.00688428527990936,-0.000474164278355893,-0.000712334162961348,6.43968139284468e-05,-0.00328782865447419,-0.00228278284269212,-6.9935062561477e-05,-0.00671656606922966,-0.000518146584510326,-0.00851364596773418,-0.00140856337701578,-0.000458636776426324,4.54650578758375e-05,-0.000530544622457718,-0.00121514866342665,-0.00232937681824641,-0.00139103856863088,-0.000778162908491531,-3.71825689446936e-05,-0.00691859565727171,2.19640042526947e-05,-0.00283912669738839,-0.000890754858967391,4.28980561064662e-05,-0.00386443994633812,-8.62125035956396e-05,-0.00160466180528296,-9.07029631469491e-05,-0.00010703982599658,-8.13675553192894e-05,-0.00298514724205212,-8.86919382221407e-05,2.04608365246273e-05,-0.00193550552690969,-1.62182078522477e-06,-0.00208136497880318,1.53701203799983e-05,-4.6749833359172e-05,-0.00272052114039711,-0.000890754858966503,-0.00653257435193666,9.10366998443379e-05,-0.000486208201983196,-6.64485424977102e-05,0.000178156267723217,-6.41880789666871e-05
"15:59484914:C:T",-0.00184899003085404,-0.00232325062685002,2.29737637065242e-05,-9.44730728322796e-05,-0.00153818185765608,-6.48289262548118e-05,-7.34796929036108e-05,-0.0006980542526005,8.87624484740002e-05,-0.00526927254198739,-0.00560542747258141,-0.000764686117502578,-0.00199457407171799,-2.96236307253395e-05,-0.00418294911837691,-0.000410745017843439,-0.00227131689626781,-0.0022367920242754,-0.000273893867857034,-7.28317186133864e-05,-3.76719965191619e-05,-5.91143042010245e-05,-0.000110643289547241,-0.000589978239956324,-0.0011565808405658,-2.96236307253395e-05,-0.00193432779916858,-0.000552537569872058,3.21096255202491e-05,-0.000135372042436188,-0.00141855994598838,4.89459867099029e-05,-0.000589978239956324,0.252351227541101,-0.000211875696198405,-0.00128395192672404,-7.50575347452376e-05,-0.0029312230606271,-3.86452908189838e-05,-0.00341536341956061,-0.000787460980680166,-2.96236307253395e-05,-6.82568599552624e-05,-5.15134327265798e-05,-0.00146645898514741,-4.60899631264944e-05,-0.00341536341956061,-0.001126951348418,-0.000184345259669705,-0.00194816565169464,8.87624484740002e-05,-6.14655493826888e-05,-0.00129233470298828,-0.00186658287858865,-0.0078502969361991,-0.000386997273396972,-3.55806691585414e-05,-0.0113404799580419,-0.0035798377330325,-5.18479242472836e-06,-0.00488521282953336,-9.55679977456825e-05,-0.00611016750348137,-0.000934222739545909,-0.000612323763950151,-0.00430260155656459,-0.000516629312412142,-8.82315884229712e-05,-2.56792175878928e-06,-2.69365892258122e-07,-3.55806691585414e-05,-0.00150705541160789,-0.00231209664649423,-0.00108794739035023,-1.61675308385512e-05,-0.00378071474564834,-0.00118995970570612,-0.000869534657211624,-3.13770455591111e-05,-0.000180412391582507,0.000100284726555877,-0.00163654800830049,-0.000752404918544336,-0.00060348451399328,-0.00437613424230499,9.02228827408535e-05,-0.00178843168017195,-0.00321867530533471,-0.00235001316569683,-0.0017725398121593,-0.0030718005930801,-0.000174999826727529,-0.000174012363200582,-0.000427533557654236,-0.00257830997304698,-7.17510205001659e-05,-0.0004027853968811,-0.00247892673931549,-0.00332438670485757,-0.00187269796533496,-0.000648583178519679,-0.00022860255367263,-0.000196458828704671,-0.00496996397532978,-0.00227474410573514,-0.0040899992975918,-0.000454127949687688,-0.00594433994029941,-0.00294718163402319,2.44416804138226e-05,-9.55679977447943e-05,-0.0037298881031691,-0.00648212723521802,-0.00202217719733788,-0.00135909261316858,-0.00559323576593584,-0.00282181335584397,-6.508489626178e-05,-0.000860304786718835,-0.000100270483485154,-0.00224325481811238,-0.00331554049054983,-0.00481461975344288,-0.000140627175092334,-2.69220286321925e-05,-0.00334930620778362,-0.00569615727143624,-0.0001319741901602,-0.00153608123628945,-0.00409065338587844,-0.0021759711471443,-0.000446652940862435,-2.56792175878928e-06,-0.00274380647835049,2.29737637065242e-05,-0.0041457274606147,-0.0112998175286805,-0.00224325481811238,-0.00618478575040537,-0.000558962627694726,-0.00547059059890831,-0.00373276784049548,-0.00403289959175357,-0.00010325735599892
"15:59486917:T:C",-0.000132079342749947,0.00086309474562718,4.22425608839205e-05,7.61058858760322e-05,-0.000397773762322196,-0.000110523954089281,0.00298223339870773,-0.00010879422802379,0.000180879665144573,0.000426049415716001,-0.000599630129677564,0.000228976121794844,-0.000128693390203161,0.00205388993281996,0.000157205044632569,0.00114575683012141,-2.57864471313596e-05,2.25884403999288e-05,-0.00018447266546584,-0.000127161782702778,0.000446760041985073,0.000247138567156746,-6.84656917711024e-05,-0.00012716178270189,0.00122498318648567,-5.21841990277494e-05,-0.000157844020919562,0.000993478232057754,5.65977095714487e-05,0.000454399789095561,0.000164353219257229,4.43190710681662e-05,-0.00012716178270189,-0.000211875696198405,-0.0429505010719007,0.000213583083872315,0.000650425341468974,8.0489567988451e-05,-6.84656917711024e-05,0.000115267943442632,5.92436260937745e-06,-5.21841990277494e-05,-0.000116286904407126,-9.10927386348348e-05,-0.000264739129976377,0.000855891374857976,0.000115267943442632,0.000114612204196618,-0.00119122091942092,-3.11287827186035e-05,0.000180879665144573,-0.000104828129041223,-0.00122145311184774,1.97544199398436e-06,-7.07046248198395e-05,0.000280670286267437,-6.2974853013209e-05,-0.000482507113560793,0.000394843650210142,-1.0133856934047e-05,-5.01167292421556e-05,0.00618727045697653,4.84263973046239e-05,-0.000204740916653456,-9.50244499620112e-06,3.25311282729501e-05,-0.000363929530525553,0.000164353219257229,-5.03750791747137e-06,-3.11287827186035e-05,-6.2974853013209e-05,0.000119760316734663,-2.05072520556016e-05,-0.000413304838302153,0.000268105699178456,0.000613312275995703,-0.000116286904407126,-0.000110523954089281,-6.45745648082396e-05,-0.000279116064268337,-5.21841990277494e-05,-6.84656917711024e-05,0.00348650947537532,0.000184890633915913,0.000172714677801444,0.000184890633915913,0.000176821294923357,0.000349602811100524,2.75892045964454e-05,-0.000146330233431691,0.000193266045678264,0.00110838379775391,0.000151426846768388,-0.000264739129976377,-1.0133856934047e-05,0.00056963552132494,0.000209618196203465,-0.000788728763483348,-0.00109359009666488,0.000422758155944614,0.000277211392078591,0.000188855027054124,0.000124199362410593,2.25884403999288e-05,-0.00019114306208845,0.000309103823686208,0.000280670286267437,-0.000402764935466315,0.000251808794814679,6.81587306061715e-05,0.0040811963251306,-0.000372984413509414,0.00148648961198639,6.52720725291545e-05,-5.75480602389433e-05,0.00352365113420028,-9.69214786801231e-05,-0.000379256279111395,5.65977095714487e-05,0.000394758270985562,-0.000110523954089281,0.000119760316734663,-0.00162194086051848,-0.000224350712577426,0.00126233146739541,0.00107514939143627,-0.000208279855506532,0.00616083598334161,8.0489567988451e-05,-0.000230880793985477,5.16442296483177e-05,-5.31527483458305e-05,-5.03750791747137e-06,-7.09779725092119e-05,4.22425608839205e-05,0.00402715288965005,-2.63371423319114e-05,-0.000110523954089281,-7.96440981112312e-05,0.000273711497846385,0.00046262734538427,-0.000176254255926267,0.00384308927088206,-0.000170076613781767
"15:59492850:G:C",-0.00247368485974953,-0.0032798987720053,-0.000894934174373141,-0.00279622336322305,0.000259739784264745,7.49119668119747e-05,-0.00011950116645032,6.43100610915326e-05,-0.000135777894969991,-0.000732818788962142,-0.00455314662098782,-0.000172435682585181,-1.71266982178508e-05,3.6124896215739e-05,0.000115145330838118,-0.00221335882959295,-0.00148854750539762,-2.20847297480731e-05,-0.00270047335818369,7.33898420977042e-05,-0.000447756521901432,-0.000226934699938397,4.42622756722244e-05,7.3389842096816e-05,-0.00136379819690369,3.6124896215739e-05,-4.23486217648872e-06,-5.88287339287064e-06,-5.05762440541346e-05,-0.00476991215735634,-0.000233743104173456,-0.00135725404198528,7.3389842096816e-05,-0.00128395192672404,0.000213583083872315,0.138260642256627,-0.000772805848063385,-6.20161106441586e-05,4.42622756722244e-05,-0.0038720177435998,7.64855438859513e-05,3.6124896215739e-05,7.78091379007861e-05,5.55293932027467e-05,-0.00442470191944011,-0.00071744292721565,-0.0038720177435998,0.000150041887104102,-0.00398045429649851,1.53987265116839e-05,-0.000135777894969991,7.20453333400428e-05,-9.76780852246506e-05,-0.00112414720458709,-0.00053082833559559,0.0012041951765287,4.15208025312808e-05,8.7740007881365e-07,4.15208025312808e-05,5.02268269020334e-06,-0.00396204450371052,0.000107756424235106,-0.00107292008107596,0.000121868801974401,-0.000405098235652268,-2.69347590782232e-05,0.000235577747572435,-0.00186197387925002,2.49792924744696e-06,-0.000269565029975105,4.15208025312808e-05,-9.35418642269426e-05,-0.00153522237590398,0.000267495140805707,1.53987265107958e-05,-0.00509363153977738,7.78091379007861e-05,7.49119668119747e-05,-0.000282251519799992,0.000185364158991952,3.6124896215739e-05,-0.0027311375212129,0.000185364158993728,-0.000137605775420546,-0.00495433739456974,-0.000137605775420546,-0.000133929575423686,-0.000948316085485068,-2.45230237867489e-05,-0.000124034540393225,-0.00092087235405458,-0.000137704827304574,-0.00101832575041172,-0.00142026781351667,5.02268269020334e-06,8.07373336959571e-05,-0.000163964485979662,0.000163482098803236,-0.00359001979985596,-0.000152659559928381,-0.000209694443424446,-0.000139413553365664,-9.56215022540619e-05,-0.00344743600482644,0.000115145330836341,-0.0010003317666305,-0.000211134968364668,-0.00115356351869522,-0.000199136139296563,-0.000385941297134096,0.000107756424235994,-0.00155876556904744,-0.00511050047256223,-0.000138224242411944,3.88084961748802e-05,0.000259739784264745,-0.00283188295060643,-0.0020482030222384,-5.05762440541346e-05,-0.00031655245589679,7.49119668119747e-05,-9.35418642269426e-05,-0.00500221118130639,-0.00173407980219142,-0.00375648619671498,-0.00298036235380028,-0.00163058473628297,0.00014325317198427,-0.000887377496209929,-0.00192289944511082,-4.82102776491189e-05,2.62402799080519e-05,2.49792924744696e-06,-0.00382732919890927,-3.16802639801494e-05,-0.00365511741374736,-0.00437688219618426,7.49119668128628e-05,4.9834613221833e-05,-0.00558019990021918,-0.00114497869706209,-0.00212426291258527,-0.0039281473847872,0.000113882618909322
"15:59493553:A:T",-0.00666282047379019,-0.0074422106598937,-0.00590407696937945,-0.00263273483751769,-0.00485598280194477,-0.00112668747787126,-0.00222125454024891,-2.26615155782817e-05,-0.000720772673550307,-0.00105395139401709,-0.00680820802142801,-0.00423392615204943,-0.00778725499166733,0.000205170585853232,-8.89324659874013e-05,0.000530209083542843,-0.0115067833868174,-0.00826735815404067,0.000135051489496441,-0.00829895223657307,-0.00685222032631261,-8.82687733776422e-05,-0.00277205337008013,-0.0198304613272513,0.000257666602763607,0.000205170585853232,-0.00044140830519801,0.000788611152855001,-0.00468210259939017,-0.00424908161563575,-0.000540903734854936,-0.00980962846688849,-0.0198304613272513,-7.50575347452376e-05,0.000650425341468974,-0.000772805848063385,0.448593423023715,-0.0015702800706503,-0.0072829308542719,-0.00101253519291422,-0.000475801946970389,0.000205170585853232,7.34575338343646e-05,5.20375758492619e-05,-0.00145478560892398,-0.00182128696261774,-0.00101253519291422,-0.000827345202653706,-0.00533632665717532,-2.20271828865748e-05,-0.000720772673550307,-0.000269239645985131,-0.00720760026059963,-0.00801535581507551,-0.00455676831136564,-0.00150073262813333,-0.00407394130216954,-0.00247017252781712,-0.00407394130216954,-0.00302123539642984,-0.00746129893053782,9.34114904165284e-05,-0.0107951873338283,-0.00457073603809777,-0.00601840269671738,-0.00640636131677841,-0.00197276109975553,-0.000368266526262317,-0.00356056193801901,-0.00587877070365828,-0.00058486281516501,-0.000109366969305746,-0.00113956685606453,-0.00178033439420222,-0.000313343944738698,-0.0115565056585178,0.000411713080395337,-0.0010534064184986,-0.00256465783938964,-0.00274983290010766,0.000205170585853232,0.000215971748714239,-0.00167580214748764,-0.00148140185087531,-0.00492616515203181,-0.00102840647034963,-0.0033632381653339,-0.00620781297751583,-0.00438957467777001,-0.0015758622844495,-0.00154579613275851,-0.000938027474513436,-0.000573395779050578,-0.000933685698385034,-0.00766646899290357,-0.000301055390309557,-0.00138289543355929,-0.00032382435791023,-0.0157413799635124,-0.00457175517407471,-0.000374735882362032,-0.000213155933791676,-0.00155069008364883,-0.00220055793002949,-0.00055394119944463,-0.00540776993132663,-0.00175347269325865,-0.01177208142908,-0.00010603782377272,-0.000465596848727046,9.34114904174166e-05,-0.00698565941724505,-0.00255473631191538,-0.00284682202125941,-0.00177993584849112,-0.00163013286875202,-0.00160537688363593,-0.000255868711150242,-0.00148985046611205,-0.000334923734230941,-0.0010534064184986,-0.00134455446491621,-0.00810386405351604,-0.00176434048885277,-0.00817585973861057,-0.0016850322672779,-0.000918836463329686,0.00076497831045419,-0.00708009624643058,-0.00101246094250396,-0.00450587344179221,-0.000118885143129965,-0.00440841143746695,-0.00506503932231706,-0.00124591630652748,-0.00363969858017477,-0.0004963081876177,-0.00105340641849949,-0.00307156541937292,-0.00897265827622729,-0.000506773853471643,-0.0069003749874037,-0.00354725887107232,-0.0011136737009787
"15:59494067:C:T",-0.000252273543527082,-0.000474520703556358,-1.1842850468291e-05,4.22837452704883e-05,9.79564053018578e-05,2.84777748458254e-05,8.16421448366356e-05,2.5390065829356e-05,-0.000488686222181123,-0.00044008504172055,-0.000112675778886739,-6.50838668603271e-05,-0.00144094334282485,1.37058518845379e-05,4.49708250966907e-05,7.06851924618945e-05,5.35469331097715e-06,-7.76990024853319e-06,4.36200486140237e-05,2.91429263903353e-05,-0.00154508825576993,2.5390065829356e-05,1.70845784310814e-05,2.91429263912235e-05,8.47959501077966e-05,1.37058518845379e-05,-2.10452888893542e-07,0.00012079995866987,-1.81615566576809e-05,-0.000136022867761376,-4.78019224345871e-05,-0.00150965546595661,2.91429263912235e-05,-0.0029312230606271,8.0489567988451e-05,-6.20161106441586e-05,-0.0015702800706503,0.0801127254247413,1.70845784310814e-05,-3.38512875357466e-05,3.04211886010819e-05,1.37058518845379e-05,2.96689158689745e-05,2.17556337283042e-05,-0.00223753517350911,-0.00157384808647976,-3.38512875357466e-05,5.79599709427114e-05,-7.28458570335988e-05,6.45951399569356e-06,-0.000488686222181123,2.72986605045489e-05,-0.000831337012967559,-3.52039672613103e-06,-0.000807171275279295,-7.9950350260205e-05,1.59467735638685e-05,-0.000416759717710491,1.59467735638685e-05,2.10868806149733e-06,-0.00080591137249808,4.07759717733214e-05,-0.000738305626899027,4.77167308483573e-05,-3.58282783015085e-05,-0.00133605721528962,-0.0021575928087092,-4.78019224345871e-05,1.04892504904086e-06,6.45951399569356e-06,1.59467735638685e-05,-3.4769546203961e-05,4.26139990938879e-06,-0.00188389152378132,6.4595139939172e-06,-0.00196029523389818,2.96689158689745e-05,2.84777748458254e-05,1.33409326767975e-05,7.01139510574933e-05,1.37058518845379e-05,1.70845784310814e-05,7.01139510583815e-05,-5.1962896908897e-05,-0.000680731588540873,-5.1962896908897e-05,-0.000681119571387612,-0.000104020886913858,-8.80425685600983e-06,-0.00160637288153698,-5.7983809262474e-05,0.00012576089922689,-4.51934665512965e-05,6.49402918027064e-05,2.10868806149733e-06,3.08722657784699e-05,-0.00225437937372952,-0.00010516447222475,-0.00151745483942545,-0.000123424428908336,-7.92750719398327e-05,-5.27684603923717e-05,-0.000953658234869259,-7.76990024853319e-06,-0.00380006977337821,-9.06155151563226e-05,-7.99503502610932e-05,-0.00143893285225172,-0.00399873162008646,-0.000283476782053427,4.07759717742096e-05,-0.00139999949342062,0.000347850041619857,-0.00539156664396945,1.48205897207987e-05,9.79564053018578e-05,2.29542955212381e-05,-0.0021895970737873,-1.81615566576809e-05,-0.00204763304592515,2.84777748458254e-05,-3.4769546203961e-05,-0.000258606719135912,5.67551347145923e-05,7.21594850521257e-05,-0.00625458390815226,-0.00266471125274137,5.41352779910298e-05,-2.30785079420315e-05,5.80849096598612e-05,-1.71458392408397e-05,1.09977524953564e-05,1.04892504904086e-06,-0.0030822423103869,-1.1842850468291e-05,-0.00315006816573771,-0.00348783452497337,2.84777748458254e-05,-0.00195745282632753,-7.85923227599739e-05,-0.00207125601311731,4.45399261010948e-05,-0.0038389094982989,4.32725699948122e-05
