"","22:26139746:T:C","22:26143648:G:C","22:26145736:C:A","22:26146009:G:T","22:26146192:G:A","22:26148194:G:T","22:26149462:T:C","22:26149878:A:T","22:26150584:T:C","22:26150608:A:G","22:26152702:T:A","22:26153415:G:A","22:26156431:C:G","22:26158448:C:T","22:26159696:A:G","22:26161487:C:T","22:26162814:T:A","22:26163166:T:C","22:26165514:T:C","22:26165807:G:A","22:26166011:C:A","22:26166603:G:T","22:26167114:G:A","22:26168857:C:T","22:26168923:A:G","22:26169203:G:A","22:26170839:C:T","22:26171199:A:G","22:26174243:A:G","22:26175407:C:T","22:26175564:G:C","22:26178000:A:G","22:26179922:G:A","22:26180538:A:G","22:26181164:T:C","22:26181990:G:A","22:26182559:G:T","22:26183705:A:G","22:26184205:T:C","22:26186348:C:T","22:26187172:C:T","22:26190467:G:T","22:26190536:A:G","22:26192765:C:A","22:26194720:T:C","22:26195406:T:C","22:26195440:T:G","22:26195481:C:T","22:26195782:A:G","22:26197675:C:G","22:26198698:C:T","22:26199527:A:G","22:26201351:C:A","22:26208645:C:A","22:26210585:A:G","22:26211857:T:C","22:26213574:T:C","22:26218355:T:C","22:26220639:C:T","22:26222882:G:C","22:26223007:T:C","22:26223892:C:T","22:26226133:G:T","22:26226630:G:A","22:26227188:C:T","22:26227213:C:T","22:26228053:T:A","22:26229142:G:A","22:26230640:C:T","22:26231312:G:C","22:26232846:T:G","22:26233110:G:T","22:26237700:C:T","22:26239950:A:G","22:26240692:G:A","22:26242849:C:G","22:26243059:T:G","22:26246018:A:T","22:26246832:C:G","22:26250462:A:C","22:26251220:A:G","22:26251467:A:G","22:26252865:A:G","22:26253978:A:G","22:26259295:A:G","22:26260052:A:G","22:26263682:C:T","22:26265213:C:T","22:26265712:A:C","22:26271131:G:C","22:26272244:C:T","22:26272270:A:G","22:26273836:G:T","22:26277029:A:G","22:26277442:A:G","22:26278128:T:G","22:26278590:G:A","22:26278679:A:G","22:26279964:A:T","22:26281177:G:C","22:26281210:C:T","22:26281409:T:C","22:26281597:C:T","22:26282048:C:T","22:26282413:A:G","22:26284823:A:G","22:26285895:G:A","22:26287482:T:C","22:26292659:A:G","22:26293158:T:C","22:26293241:C:T","22:26294748:C:T","22:26295033:C:T","22:26296347:G:A","22:26297933:C:T","22:26303960:G:A","22:26304964:C:G","22:26310924:A:G","22:26311502:C:A","22:26312188:A:T","22:26317078:G:C","22:26319451:G:A","22:26321051:A:C","22:26323366:G:A","22:26325086:A:G","22:26327243:A:G","22:26327731:C:T","22:26329339:A:G","22:26329516:A:G","22:26330028:T:C","22:26330934:C:T","22:26331733:C:T","22:26337794:A:T","22:26341280:G:A","22:26345912:T:A","22:26350561:G:C","22:26350872:C:G","22:26355793:C:T","22:26357022:G:T","22:26357732:T:G","22:26367924:A:T","22:26368659:C:T","22:26369358:C:T","22:26371363:G:C","22:26374441:G:A","22:26376541:C:T","22:26378715:T:C","22:26378722:C:T","22:26379837:T:C","22:26380389:G:A","22:26383294:A:G","22:26385093:T:G","22:26385659:G:A","22:26385713:G:C","22:26387181:C:T","22:26387764:A:G","22:26388304:G:A","22:26389510:G:A","22:26394724:A:G","22:26395302:A:G","22:26395407:A:G","22:26397000:G:A","22:26398609:T:C","22:26399538:T:A","22:26404605:C:T","22:26405073:C:G","22:26409315:G:A","22:26409666:T:C","22:26411768:A:C","22:26412755:C:A","22:26414675:T:C","22:26415565:T:C","22:26416852:G:T","22:26417956:C:T","22:26418541:G:A","22:26420338:G:A","22:26420414:A:G","22:26421469:G:A","22:26422201:A:G","22:26422980:A:G","22:26423124:G:C","22:26423584:A:G","22:26425853:T:C","22:26426774:C:G","22:26427848:C:T"
"22:26139746:T:C",0.61862000511792,-0.00250151322771552,-0.00335494981790685,-0.00557737814974857,3.95789350466913e-05,-0.00110921704910982,-0.00218006673653237,-0.00289159688801277,-0.00589188381203698,8.9905897435294e-05,-0.00231156297423718,-0.00314273927187969,-0.000712251368571781,-0.00386391393026075,-0.00776833430330814,-0.00537202247512614,-0.00279914104768597,-0.00287511372956128,-0.00320100543482216,-0.000495137880169416,-0.000598874082862189,-0.000228452431012549,-0.00325384190563449,-0.00170236014643965,-0.00664587521432569,-0.00148359044101376,-1.40063116624844e-05,-0.00493017293655562,-0.000496196525192616,-0.0153453763216373,-0.00385516508896444,-0.00396149503884402,-0.00167539674054229,-0.00660983064562659,-0.00151634760505281,-0.00148363402270135,-9.24718544319525e-05,-0.0044060735299718,-0.00337375923571237,7.78050141292397e-06,-0.00368490506707753,-0.00093325501593533,-0.00110282565609854,-0.00373548824765813,-0.00229422301398863,-0.00311910504943747,-0.0012217263190295,-0.00177173467601266,-0.00315685199533711,-0.00439539273190714,-0.00582333593333217,-0.00212366599389657,-0.00153898340764069,7.78050141292397e-06,-0.000149407468242213,-0.00206414589079973,-0.0014163705322785,-0.00439167540379337,-0.000181173998174522,-0.00546172582976423,-0.00604896441884506,-0.00307845354045444,-0.00171836670241055,-0.000131655577232159,-0.00120475207367043,6.36806672886792e-05,-0.00371837404768094,-0.00110075628376372,-0.00156364129798581,-0.00806397866686925,-0.00258631513250052,-0.00245623024600627,-0.000489676864189104,-0.00453473629550549,-0.00934231932966512,-0.00269950706659383,-0.00658531243144944,0,3.57542913453912e-06,-0.000136959611729548,-0.00692261730905486,-0.00685897236196897,-0.00782211435449875,-0.00371330980615792,-0.00654571199230691,-0.00128294888923985,-0.00379920999133621,-0.00509123431356073,-0.00822742184464254,-0.000564623181288582,-0.010588823988849,-0.00544738321824578,-0.00595936088132332,-0.000126971128628917,-0.00524753753141205,-0.00190998496113393,-0.000345402926749117,-0.00378280360143446,-0.00480744683393786,-0.0044666725491096,-0.00465179252273051,-0.00785206536576899,-0.00450282898692134,-0.00365838129440421,-0.00855154673435754,-6.06090094050771e-05,-0.00457624287357206,-0.000175618885414064,-0.00495683270728575,-0.000473450605047443,-0.000246512903269824,-9.3699900387989e-05,-0.00334116011802044,-0.00137409730477334,-0.00422182050219577,-0.000874149828442583,-0.00212400765841902,-0.00167075141999362,-0.0013009499025145,-0.00831763749915204,-0.000294217766994898,-0.00266236604900971,-0.00154297815151239,-0.00714068604950935,-0.00122810714054644,-0.00351585903448726,-0.00300485011759388,-0.000318654181605371,-0.00275329753892528,-0.00125892413181639,-1.88416282407289e-05,-0.00473435945871081,-0.0019624069295574,-0.0179184386594184,-0.0164215304560713,-0.00077971296834134,-0.00258795591357197,-0.00300805705685381,-0.00216522177659106,-0.00252771833027676,-0.00164560397778724,-0.00580418704765817,-0.0132334213807135,-0.00622564730271868,-0.000130631103851808,-0.00335936032851025,-0.00913561845884159,-0.00163819025167999,-0.00078046050956182,-0.00219206546576434,4.89051802698981e-06,-0.000202998358491691,-0.00273208960190541,1.01245866428457e-05,-0.00244157469923145,-0.00704535809348839,-0.00394181670993232,-0.00572752211007987,-0.00692816409229957,-0.00669482733585758,-0.00708724222426493,-0.00247597779001918,-0.00144589985292942,-0.00163256163364345,-0.00150957435298071,-0.00184345441156442,-0.00154412392658276,-0.00318704107477874,-0.00461062076125263,-0.0135153555525975,-0.00501026384878189,-0.00582687250327885,-0.0028750189307658,-0.00212230415613002,-0.0020276154154022,-0.00409496828975442,-0.00375968487521305,-0.000115822416980382,-0.000154973984601625,-0.00829758927492596,-0.00380209539366927,-0.000436855687301119,6.24018946551175e-05,-0.00742132474404489,-0.000127315100723724
"22:26143648:G:C",-0.00250151322771552,0.594026587728766,-0.000846876247698525,-0.00144277059953346,-5.42322703678266e-05,-0.0016918535670527,-0.00120137206249238,0.000129357695752397,-0.00425524187719484,-2.24079987969361e-05,-0.00926661926743755,-2.70248143738883e-05,-0.00789507132678002,-8.36492722626758e-05,-0.0021682534251406,-0.00551516160884624,-0.00169453367485861,-0.000106392610845774,-0.00249083829347718,-0.00185394986078569,-0.00237371220123839,-0.00198807684257041,-0.00649088549934884,-0.00393364635047977,-0.00618406442599095,-0.00035205392097204,-0.00012763755485512,-0.00102763409492646,-0.000349609603169654,-0.00942847360265908,-0.00013866018194264,-0.000415487645580193,-0.00801719380365817,-0.00437213471845777,-0.00170775568788706,-0.00151633449898991,-0.00293786937168505,-0.0019574190918723,-0.000342324774923242,-6.00322679495946e-05,-0.00138472738996143,-0.00894404708615415,-0.000118329728950428,-0.00212680349157779,-1.03498983605732e-05,7.83418667422708e-05,-0.000279137895036641,-0.00355875212779377,-0.00155718807193672,-0.00274519396675732,-0.00739995385313463,-0.000342324774923242,-0.000732196326722168,-6.00322679495946e-05,-0.000115547617003386,-0.00310095741526073,-0.00557408816834215,-0.00304934440987559,-0.000247185593591936,-0.00347934426351948,1.24564315777675e-05,-0.000462271432052574,-0.000279302654377034,2.75849156254893e-05,-0.000537887659373126,-0.000172791730992827,-1.03498983605732e-05,-0.00498517403188226,-0.00411701036188727,-0.00860404033105677,-0.00445582316980442,-0.00106082527059037,-0.00280345969265383,-0.00608096011686321,-0.00255769944028916,-0.000445845247947219,-0.00961665258872335,0,-0.000289279932780495,-0.00180408560249212,-0.00649697585582132,-0.005418413771201,-0.0119599829508976,8.25661606835837e-05,-0.00195891641821433,-0.00117580659427308,-0.00435578255433366,-0.00146864987078477,-0.00549011141540312,8.25661606835837e-05,-0.000689199343445246,-0.00159088716093514,-0.00351186397182035,-0.00358244247453143,-0.00172107299396984,-0.000261021256518834,-7.70503429325942e-06,-0.00950379317761296,-0.0165318424676686,-0.00873386403093779,-0.00243344872582973,-0.00500759932451045,-6.64438822051139e-05,-0.00773104400596392,-0.00695039360248639,-4.11191393041577e-05,-0.000275997377818804,-0.000338855883872391,-0.00638555948612751,-0.00231119858592965,-0.000797697693735167,-0.000163536966984346,-0.000607718513103706,-0.000401240182239526,-0.000182432616099959,-0.000541188309661322,-0.00444309656391262,-0.00368188948610815,-0.00110363933766866,-0.00627961520183007,-0.00343747017717533,-0.00104391353201017,-0.000218457765790436,-6.79987496559065e-05,-0.00184244406018053,-0.00184968910850358,-0.00693243962457135,-0.00293141132264108,-0.00648109914353334,-0.00289381376412567,-4.11191393041577e-05,-0.00228067467386595,-0.00253028436934954,-0.00575136683472754,-0.00260834605274418,-0.0035277476897777,-0.013273713151623,-0.00302302331509718,-0.00175482942782512,-0.000131752755643255,-0.00389614561156648,-0.000132116959751016,-0.00577818399164798,-0.00418259547549216,-0.000823615745265016,-0.000415487645580193,-0.0038812633170533,-0.00479619268629472,-0.0194001024856716,-0.015639689494952,-0.00624958797452724,-0.00386184455394378,8.25661606835837e-05,-0.00102763409492646,-4.2068855057309e-05,-0.00614217421160568,-0.00289759560831904,-0.00756378246748035,-0.00645057382414649,-0.00635183733648237,-0.00212680349157779,-0.00443283282810203,-0.00606958206554165,-0.00387999248802551,4.1868964642866e-05,-0.00684120083942208,-0.000110749168745095,-0.0051468162712478,-0.00433480399844033,-0.00619861631548879,-0.00802236449446792,-0.0114699328034975,-0.00911998483079746,-0.0197223146466867,-0.00458490137333101,-0.000570472360962526,-0.00310728377226077,-0.000111443589585036,-0.00013866018194264,-0.00560330767694106,-0.00102126945291126,-0.000167696079519608,6.01994728839372e-05,-0.000537887659373126,-0.00500131428941675
"22:26145736:C:A",-0.00335494981790685,-0.000846876247698525,0.17340076952065,0.000103974665134565,3.01882872415504e-05,-4.72953703747336e-05,0.0002671231048339,-8.39381902650871e-05,-0.00656286531447847,-8.56418820696092e-05,-0.000767473184208001,1.54981522006992e-05,-0.000321680776684374,-6.58020054631336e-05,-7.69303471299665e-05,4.30683924879105e-06,-0.0010692872248228,5.18833644163053e-05,-0.000804172143296533,-0.00328763883714256,-0.00470985250009015,3.71812569728291e-05,-0.00488782186293957,-1.58915628798439e-05,-0.000931114006281319,-0.00196770645438971,-2.82244393945419e-05,9.58128819688042e-05,-0.00320609449623266,3.73143656320352e-05,-0.00176220228081281,-0.00158168052754704,-0.000410381515674629,-3.51964351601453e-05,0.000227885558098606,-5.11486468717237e-05,-0.0011698181623272,1.09468830293835e-05,0.00016280891759024,3.24939056257634e-05,-0.00305924177889505,0.000495104103490185,-0.00338530988133101,-1.58915628798439e-05,4.30683924879105e-06,-5.11486468717237e-05,-0.000789320823868067,-0.000809577200985068,7.2982642002728e-05,-0.00313835934223761,-6.38706823670177e-05,0.00016280891759024,-4.95918893861358e-06,3.24939056257634e-05,-0.00108742403408524,-0.000730358250076613,3.24939056257634e-05,-0.00154077659442908,3.48247568888738e-05,-0.00431759925709763,-1.37546089939988e-05,-0.00020233050267926,1.90961030011039e-06,-0.000814854577611435,-0.000113293414223392,9.05187855151368e-05,4.30683924879105e-06,-0.00123187764542632,-0.00481037160611208,-0.00101968154287757,-0.000134285809962442,-0.00081037382683391,-0.00381379851952435,-0.0102412158373113,1.6402794244641e-05,2.01530462398125e-05,-0.0031349336800961,0,-0.00324205501808184,-0.00106281293515398,4.93637044591821e-05,-0.000135248729174364,-0.00089784427822881,-0.000328245787077464,-0.000108536336869136,2.01530462398125e-05,-0.00091602130631685,0.000112413159819802,-0.000317658335212023,-5.30432693999217e-05,-0.000741784434396209,-2.62252455280887e-05,-0.000909505030757707,-0.00462119759362523,4.19729134923941e-05,-0.000826101536229196,-2.00940815213713e-05,-0.00130154967697482,2.07001799603646e-05,-0.000169241075735016,-0.00176676315301361,-0.00129122403897686,-0.00179864254614071,0.000162728917395327,-0.00216311958234705,0.000120658405998064,-0.00134187419428233,-0.00101973784649445,-0.00300964275687399,-0.000195578196870549,0.000150052751145324,-0.000114843954651889,-0.00161378808536661,-0.00101185841315488,-0.000156833887868579,0.000134947542904662,-0.00017177803365076,4.44089487228183e-05,-0.00184381079978024,-0.0010360730642649,0.000200126674569034,-0.000110139902356643,-0.00222121264193831,-0.00104590621776257,0.000231908862271091,-0.00178606201403753,-0.000111725494690518,-0.00018279149570688,-0.00208931842255122,0.000130178419713189,0.000120658405998064,1.32097817280297e-05,-0.00167689869265697,-2.41105921974238e-05,1.32097817280297e-05,0.000175381710684874,-0.00110601681912748,2.01530462389243e-05,-0.00269942825696834,-0.00385916579993584,-0.0016057802135494,-5.38618519687617e-05,-0.00073155745369391,-0.000897297035649558,2.40553673007682e-05,0.000143908326116993,0.000181883333852717,-0.000363364408618061,0.000436990446028851,-0.00609485737591609,6.49582044420782e-06,-2.42040329068161e-05,-5.30432693999217e-05,9.58128819688042e-05,7.03569388846859e-05,0.000155899447671359,-0.000886997547395296,0.000130178419713189,-0.00511620128687973,0.000121689802657698,-1.58915628798439e-05,6.49582044420782e-06,-8.22155134025948e-05,-5.11486468717237e-05,-2.62252455280887e-05,0.000469856281604564,3.95638309891311e-05,-5.11486468717237e-05,-0.00090063558617981,-0.00480036414155638,-0.00117242849308496,-0.000222586459286411,-0.00484515950276521,-0.0037607278080829,6.73598144338428e-05,0.00015373761856452,-0.00719795541959556,-0.00431501545750557,7.04026132956059e-05,-0.000274393371484827,-0.00111615416042454,-0.000111725494690518,6.03616421086528e-05,-0.000113293414223392,3.22675144044382e-05
"22:26146009:G:T",-0.00557737814974857,-0.00144277059953346,0.000103974665134565,0.234130876477909,-3.01793220174318e-05,4.22016757815058e-05,-0.00283536407571283,7.90197702169593e-05,-0.00368595998654442,8.11987260211922e-05,0.000104512355246555,-1.9619981247665e-05,-0.00579796885033801,5.56493400685198e-05,7.0027412275131e-05,-5.43056676427511e-06,-0.00319267463937045,-5.77474080865059e-05,-0.00258428767491647,-0.00560955888854764,0.000160256903932066,-3.90195178852082e-05,-0.00195711728644543,1.155852592305e-05,-0.00296847079507589,-0.000175645748027975,2.71877142008492e-05,-9.88113202815555e-05,-0.00495096273546203,-0.00145326661701706,-7.36164048822374e-05,-0.000153789639937507,-0.00195473406038182,-0.00279131171528135,-0.00205687764958551,4.71137141913047e-05,-0.00524002494296116,-1.38358030001839e-05,-0.00017162182377195,-3.30891872506456e-05,0.00109188863155207,-6.40552867832156e-05,-6.39925698520116e-05,1.155852592305e-05,-5.43056676338693e-06,4.71137141913047e-05,-0.00266191724205278,0.000534045214076961,-0.00463219459626085,-8.70399465808802e-05,5.31416711107013e-05,-0.00017162182377195,-2.41302074854843e-06,-3.30891872506456e-05,-0.000243940768763551,-0.00735466746886271,-3.30891872506456e-05,-0.000116455903315327,-3.60356885256152e-05,-6.43230318582155e-05,8.83619548819325e-06,0.00018465303453219,-0.00296349482390212,-0.00281967557001472,0.000106007932092922,-9.20648950701874e-05,-5.43056676338693e-06,-0.000124556300084677,-4.67656578750919e-05,-0.00129021391143613,-0.00133173161411282,-0.00158764238042597,-0.000963008488362505,0.000294998180602413,-3.00350409885297e-05,-2.5555281455425e-05,-0.00184365876125359,0,-0.00491284515653856,-0.00306509802829247,-5.45240603742059e-05,-0.00268582994325595,-0.00683483319109968,-0.00226704704797775,9.98313144950913e-05,-2.5555281455425e-05,-0.000111740347785272,-0.000120125313934238,-1.63905593275615e-05,4.95237984603492e-05,-0.0027400554959307,2.46636463563377e-05,-0.0102335391925559,-0.00144165404279217,-4.51020168306115e-05,-0.00450599712570376,1.68999694221128e-05,-0.00323356050200196,-0.00424668791316574,0.0001544504322748,-0.000846877236329036,-0.00455735616072328,-0.00405418024092175,0.000111600355649166,-0.00345648240095997,-0.000123787290952748,-0.00175725868440679,-0.00219137840771122,-0.000112671227062933,-0.00228848380586921,-0.000415694578205006,0.000108016220378815,-0.00215854088787104,0.000149497692213174,-0.000391593486227748,-0.000142170081822712,0.00015789753982709,-0.00120622296460837,0.0001544504322748,-0.00589576854635521,-0.0007523902307085,0.000101915952245513,0.000113405215450335,0.000197353295226854,-0.000730350776771083,-0.000901848228031632,0.000103974665134565,-0.00307121713014791,4.54677867800513e-07,-0.00116115363113511,-0.000123787290952748,-0.000189786295095473,-0.00350250896078119,-0.00229208899977973,-1.67093628782311e-05,-0.0041049659137613,-0.000944513068264818,-2.55552814563131e-05,-0.00407895980552198,-7.03675302933249e-05,-0.000192286892137794,-0.00153162000125295,-0.00304512803240975,-0.000255734866803969,-0.00295885348920599,-0.000153789639937507,-0.000949378039561743,-0.00146357252647356,-0.000913656732265622,-0.00108563003226347,-0.00156589648447358,2.2108062739612e-05,4.95237984603492e-05,-9.88113202815555e-05,-0.00129414933321748,-0.00267540591018456,-0.000851805886666668,-0.00351770939576745,-0.00350895855029432,-0.00279398113971929,1.155852592305e-05,-8.19707849952778e-06,7.68136754674131e-05,-0.00243211877027871,2.46636463563377e-05,-0.000949730467645793,-4.20413848232215e-05,4.71137141913047e-05,-0.000872973332967319,-0.00558576771528152,-0.00228801212280683,-0.00269158792845658,-0.000201001354257713,-0.000897553115998484,-0.00213105975017136,-0.000159860622138908,-0.00517179738532381,-0.00276692273779044,-7.36164048822374e-05,-0.00203212755405602,-0.000198335337606714,0.000103974665134565,-6.0864956571649e-05,0.000106007932092922,-4.10946205500196e-05
"22:26146192:G:A",3.95789350466913e-05,-5.42322703678266e-05,3.01882872415504e-05,-3.01793220174318e-05,-0.00452323132140808,1.24173278743811e-05,-0.000101296493455472,2.28334189147361e-05,-9.22751873915217e-05,2.34078448224651e-05,3.12035622354045e-05,-5.12039849809298e-06,0.000170421398355103,1.67028418900372e-05,2.0467961396875e-05,-1.42075762976646e-06,-2.24140385736149e-05,-1.56644971252007e-05,-0.000340105976379235,0.000252390608495467,-0.000338585058646146,-1.08106461826907e-05,-7.1637568499483e-07,3.68764713076786e-06,2.28167132947377e-05,-4.82917200610444e-05,7.78077916763209e-06,-2.74904783212904e-05,-7.73076998710209e-05,-1.23650794661145e-05,-2.03947845598407e-05,-4.21586585925837e-05,-0.000198829092269648,-0.000191034555031777,-6.78407938350389e-05,1.37058518845379e-05,8.33193503257945e-05,-3.19530093060294e-05,-4.7268480264151e-05,-9.26729003491999e-06,-0.000184741641856334,0.000324345010235483,-1.7903192986779e-05,3.68764713076786e-06,-1.42075762976646e-06,1.37058518845379e-05,2.38522808633235e-05,0.0001671350116208,-2.12450007737175e-05,-2.38572010546889e-05,1.6048300310878e-05,-4.7268480264151e-05,4.79797490626765e-08,-9.26729003491999e-06,-1.82258219831866e-05,-0.000112433703501225,0.000596374212026518,-3.20258793911066e-05,-1.00344951761144e-05,-1.73616043488423e-05,-0.00018325818389453,5.41327088319221e-05,-2.24430559114808e-06,5.08393166676058e-06,3.0724407713123e-05,-2.57497253919325e-05,-0.00035013852778043,0.000129363413100769,0.000335207970485918,-3.8477705437856e-05,3.56042640987653e-05,8.03683694758917e-05,-4.62835195200739e-05,3.67953328419546e-05,-7.09501263429502e-06,-6.66255284098582e-06,6.70460473735091e-05,0,-6.90665182609962e-05,5.95946006587411e-06,-1.48312311782917e-05,3.30209824985772e-05,-3.9954641236406e-05,-0.00161483678606,2.90971600120926e-05,-6.66255284098582e-06,-2.9492156564892e-05,-3.29659457634079e-05,0.000304982329418557,1.43389289801732e-05,6.22231936020512e-06,7.11818869802983e-06,-0.000163557519919699,-3.44928447368886e-05,0.000249907153868634,0.000139898460886911,5.08393166676058e-06,2.71919920136199e-05,-0.00016217651724304,4.52217622868289e-05,4.02209062411174e-05,-6.90796641160674e-05,-3.01793220174318e-05,-4.97232553469118e-05,8.0706293853261e-05,0.00205388993281996,3.23447187771109e-05,0.000481009807655752,-0.000105766303651222,5.16332348459159e-05,0.000509421981937486,3.12543772285068e-05,-0.00089629065427399,-4.28813048971577e-05,-3.21247738330754e-05,-3.9194511509244e-05,4.61283434463056e-05,-1.31943672529999e-05,4.52217622868289e-05,-0.000453980397270293,-5.85682337899129e-05,2.9645908089293e-05,-0.000110665438445956,-3.03362707194665e-05,0.00035209253079671,5.61626640758206e-05,3.01882872415504e-05,-3.99463915812248e-06,7.93555753553221e-07,-3.88546794720668e-05,-3.4483739232094e-05,-4.36298639083788e-06,8.53114490118045e-05,0.000113894214038623,-4.36298639083788e-06,-5.14365567569897e-05,-5.28720050745335e-05,-6.662552841874e-06,-5.06196104614887e-05,0.000627290566913352,-5.25106456290558e-05,1.26509640736572e-05,-7.69604281076752e-05,0.000167987598159947,-9.66393913692798e-06,-4.21586585925837e-05,-5.35980392522006e-05,3.91096645628863e-05,-0.000133475233536018,0.000561286904186886,-2.14350637772753e-06,6.44794018178629e-06,1.43389289801732e-05,0.00102658600432903,-2.17917317977268e-05,-4.74343617744566e-05,8.99768966533543e-06,-3.88546794720668e-05,0.000138423179405933,-3.74130808138418e-05,3.68764713076786e-06,-2.14350637772753e-06,2.22523354205251e-05,1.37058518845379e-05,7.11818869802983e-06,0.000846787374109148,-1.15959004727273e-05,1.37058518845379e-05,-7.07958266232822e-07,-8.51782027089243e-05,-8.71257924410784e-05,2.63367912962664e-05,2.24546016713845e-05,-0.000520716938781085,-2.24140385736149e-05,-4.42707925865093e-05,2.92538238451101e-05,-1.65078928855422e-05,-2.03947845598407e-05,-0.000123604946731248,-6.66255284098582e-06,3.01882872415504e-05,0.00205388993281996,3.0724407713123e-05,-1.06852740273666e-05
"22:26148194:G:T",-0.00110921704910982,-0.0016918535670527,-4.72953703747336e-05,4.22016757815058e-05,1.24173278743811e-05,0.193211120504781,-0.00198688396204982,-3.53196102089726e-05,-0.00485264596517077,-3.61355939437757e-05,-5.04699639920503e-05,6.9154646809011e-06,-0.00016807698821264,-2.66798901726872e-05,-3.1971087394389e-05,1.92814049881918e-06,-0.00244030281190355,2.18649481142918e-05,-0.00165446334920638,-0.00205644503113245,-0.00311607974534311,-0.00243868466987784,-0.000409680618400188,-6.09973007836828e-06,-9.5927351836167e-05,6.58588272823835e-05,-1.17277497375667e-05,3.88009087393115e-05,0.000100753811365983,-0.00263019024860611,2.89050804962443e-05,-0.00195739767489833,-0.000282609419233637,-0.000126153082895542,-0.00227143790820517,-0.00365030368941355,-3.06164747900795e-05,-0.00185056205349543,6.46326924762519e-05,1.34273512033545e-05,0.000199406616050446,0.000211317488471252,2.56716824020842e-05,-6.09973007836828e-06,1.92814049881918e-06,-0.00120089502541632,-0.000162699752133122,-0.000857951382739586,3.00032959028584e-05,-0.00223154847113172,-0.00145596089228306,6.46326924762519e-05,-9.17958513069195e-05,1.34273512033545e-05,2.52021869444619e-05,-0.00523631041967398,1.34273512033545e-05,-0.00204799823519952,1.44469867153774e-05,-0.00188182602180298,-0.00160613984421953,-8.77465823094781e-05,-9.21139539675764e-05,-8.01303759523364e-06,-4.80644618328085e-05,3.65852350245888e-05,1.92814049881918e-06,-0.00333352539206899,-0.00206336278981922,-0.00233830656846745,-5.67673776430411e-05,-0.000301233444872651,-0.000128936387938872,-0.000468645319893213,8.44678414502198e-06,8.98007591221273e-06,-0.00173145568168209,0,9.11183996468168e-05,-0.00251099540407029,2.07742039872727e-05,-0.000163851677076998,-0.00252124641224682,-2.20281329070815e-05,-4.57329874370416e-05,8.98007591221273e-06,3.96037146996875e-05,4.56983942260791e-05,-0.000108197540292565,-2.20281329070815e-05,-0.002901128553364,-1.08127263507285e-05,-0.00377123268494994,-9.75859442471361e-05,-0.00212517167905535,-0.00135815470698031,-8.01303759523364e-06,-0.00459657339316433,-0.00233786753758114,-7.25995577077754e-05,2.1786257097034e-05,6.9249537353322e-05,-0.0026031144340477,-2.52736541739296e-05,-0.00490152368633456,4.8327046815011e-05,-0.00133395857352259,-0.00203068868133727,-0.00315661353148045,-0.0010239142032562,6.02538930607466e-05,-4.88256502162443e-05,-9.81957176113823e-05,-0.00224282065535775,-0.000205952087705796,5.41551758166392e-05,-7.39155585653961e-05,-0.00237781890349176,-7.25995577077754e-05,-0.00116025214846882,7.858065373334e-05,-4.65182537663367e-05,-8.1552962729603e-05,-0.00419949130526298,-0.00212743093334122,-0.000725073690479583,-4.72953703747336e-05,-0.00706465406605439,-2.15565234018555e-06,-0.00201973326659743,4.8327046815011e-05,-0.0018219119304197,-0.00321293382965049,-0.00128239452923218,-0.0018219119304197,6.96032396438895e-05,-3.47607575301723e-05,-9.20906126236076e-05,-4.00059308818257e-05,-0.00283383201395448,7.08738166537159e-05,-2.10387372492349e-05,-0.00700856776854675,-0.00630670614538786,-0.00160260913109234,-0.00535273065292596,-0.000137459475178403,-2.62861671922465e-05,-0.000171954367765181,-0.00466066283966082,-0.00279209690976057,-9.88868708695634e-06,-2.20281329070815e-05,-0.00388852489306846,2.98093379456077e-05,-0.00184993434091663,-0.00176224546153136,5.29950648635591e-05,-0.00269311199507882,-0.00178574355868122,-6.09973007836828e-06,2.90625456322857e-06,-3.44952949946631e-05,-2.11433663155347e-05,-1.08127263507285e-05,-0.000189815815211603,1.65156242726283e-05,-2.11433663155347e-05,-0.00168477875783513,-0.000657321284038392,-0.0020950153646444,-4.3576458998551e-05,-0.00137091346664509,-0.00859082905722719,-6.06225854919984e-05,6.1018503160426e-05,-0.00113778364882799,-0.00190187441415279,2.89050804962443e-05,-0.00323339618229035,8.98007591221273e-06,-4.72953703747336e-05,2.46138519592876e-05,-4.80644618328085e-05,1.43260739600137e-05
"22:26149462:T:C",-0.00218006673653237,-0.00120137206249238,0.0002671231048339,-0.00283536407571283,-0.000101296493455472,-0.00198688396204982,0.622627128059307,-0.00288757175764331,-0.000570770897475814,-0.000444764201001036,0.00017283277907687,-0.000537207985575883,-0.0030799986999952,-0.00682443650997655,-0.00502193411634178,-0.00160028127940226,-0.00862521666004934,-0.000968412865224977,-0.00642679369225929,-0.00412351817255363,-0.00176570935670561,-0.0025586823555388,0.000101909005088441,-0.0072208898525048,-0.00706421519348321,-0.00100417487306892,-3.7039393916416e-05,-0.00593339387204583,-0.00310725441200255,-0.000498398474953365,-0.00126041474145921,-0.00269477798320672,-0.00128861126450985,-0.00808032855279883,-0.00143334874063994,-0.00344220606611234,-0.00175915708853092,-0.000857264616759501,-0.00240572258266081,3.2668305125938e-05,-0.00424311742991978,-0.00302881319163451,-0.00666574164816058,-0.00221525727091887,4.84727704286314e-06,-0.00333208952781927,-0.00269124497211326,-0.00448144665674466,-0.00353897041815632,-0.00165919216327648,-0.00509728457664149,-0.00240572258266081,-0.00255396722681223,3.2668305125938e-05,-0.000677475653033888,-0.00413610117426044,-0.00558610855538966,-0.00206766937049974,3.464654294838e-05,-0.00443887444809832,-0.00820929535626647,0.000168853914265021,-0.0030953562179068,-0.000179066570539455,-0.00200583329561077,0.000339779795383244,-0.00837508911866447,-0.00624594950149371,-0.00245442750602276,-0.0106432313329421,-0.00258031535763426,-0.00299160662860576,-0.00427583676484922,-0.00821775679347203,-0.00960168282995211,-0.00126070941221723,-0.00814824063737962,0,-0.00279441462419872,-0.00605465437589148,-0.000688385259564051,-0.0039236269543057,-0.00101232186993139,-0.00590321980141795,0.000162782351226909,-0.00331468243625466,-0.00646050545483634,-0.00293007675344104,-0.00323026834368445,-0.00559564056556461,-0.00367224589802095,7.22415221439121e-05,-0.00355777142767222,-0.000346043160190046,-0.00238697558554701,-0.0023650258629222,-5.8502651365977e-05,-0.00343390128330334,-0.00178404962693479,-0.00731830038938952,-0.00255132405821312,-0.00334502594761599,-5.94033799874438e-05,-0.00681138375804125,-0.00564390776651313,-0.000283306440835851,-0.00711406750804899,-0.000240294632081195,-0.0112406283440238,-0.00815984148616522,-0.00199321831120702,-0.000222935982228556,-0.000122216243087614,-0.00503752113460632,-0.00874220535258718,-0.00150776611550629,-0.00330718152846554,-0.00194714207494684,-5.08055607832958e-05,-0.0016910944890518,-0.000653427505833193,-0.0048680121801068,-0.000483818321322271,-0.00601301510437757,-0.000823712124677023,-0.00312835513236775,-0.00503481843814946,-0.00114836770866589,-0.00420590036260915,-0.000326952736209751,-0.000128062602041012,-0.00271644889549361,-0.00441317716229683,-0.00575026136366175,-0.00642835820230037,-0.00345734605777359,-0.00881993973310413,-0.000148613855052382,-0.000738444410986361,-0.00373666306552867,-0.00510909373400015,-0.00446285184384188,-0.00474152614710599,-0.00368775113418041,-0.0051075672251919,-0.000163591138889529,7.34337845811339e-05,-0.00130581153638465,-0.00222210002057244,-0.0114539552664179,-0.0113716540772941,-0.00171018037276216,-0.00036262563439049,-0.00645231867647844,-0.00221388526901123,-0.00807270691440465,-0.00506894536073066,-0.00158164600072386,-0.00417941108378495,-0.00770321409100649,-0.00445054591641814,-0.00238474472944805,-0.00229942091665514,-3.72278693649974e-06,-0.005149567318119,-0.00208793169676991,-0.0018771447868744,-0.00556906028462834,-0.00488353495678906,-0.0055176937027297,-0.0113492012904719,-0.00964163733300749,-0.00422973097821533,-0.0012491863931019,-0.0030473669239619,-0.0012795349961392,-0.00592089036959775,-0.0002045450643271,-0.000349197431927628,-0.00540011121326556,-0.00998316956117318,-0.00388997889407605,-6.21220152972057e-05,-0.0033921210184884,-0.00404138746123195
"22:26149878:A:T",-0.00289159688801277,0.000129357695752397,-8.39381902650871e-05,7.90197702169593e-05,2.28334189147361e-05,-3.53196102089726e-05,-0.00288757175764331,0.207131664478286,-0.00429348246929795,-6.44698353200468e-05,-9.05183602997184e-05,1.21118711717827e-05,-0.00170892255808219,-0.000445527451311101,-5.76067266058189e-05,3.36559472824405e-06,5.26583183066975e-05,-0.00101074883515562,-0.000914992012543969,-0.00278122446240125,-0.00423737288241899,2.82894795091693e-05,-0.00742848853754818,-0.00313612599668023,-8.41519499683585e-06,0.000126066553775672,-2.12700145123534e-05,7.26646350033278e-05,0.00019955991787679,2.91650831414358e-05,5.3506050213592e-05,0.000109510673174995,-0.00848664704742053,-2.58192573951987e-05,0.000173772196904842,-3.83451313625827e-05,-0.00175912475855799,8.55480877071102e-06,0.000123662167680116,2.46322522814424e-05,-0.00353794150469877,-0.00430749200843383,4.76053942000121e-05,-1.16120418667265e-05,3.36559472913223e-06,-3.83451313625827e-05,-6.93134619211833e-05,-0.00382291256159561,-0.00145146702725185,6.1686167504682e-05,-4.7317699613636e-05,0.000123662167680116,-3.04989396404665e-06,2.46322522814424e-05,4.5798170346778e-05,-0.00682843150944556,2.46322522823306e-05,8.33760951390872e-05,2.64508302709743e-05,4.37629178735577e-05,-9.93846523655861e-06,-0.000151853014602743,2.33014507777796e-06,-1.49031897143104e-05,-8.51788033200407e-05,6.85429064768428e-05,3.36559472913223e-06,-0.00359938583322261,-0.00343565084220021,9.59769043173964e-05,-0.000100536308736743,-0.00341172666389067,0.000119187590508218,-0.0018522724934309,-0.00310817282922748,-0.00087164002606066,-0.00717744447761959,0,0.000178588547287362,-2.39588649888489e-05,3.77957443458143e-05,-0.000687906026341167,-0.00175002086865117,-3.98327263448905e-05,-8.14147770773488e-05,1.57501187345588e-05,-0.000783016711384477,8.55913483075454e-05,0.000264479892710945,-3.98327263448905e-05,-0.000579462791990615,-1.97045038135002e-05,-0.00341750448311728,-4.67227296407913e-06,3.2028334612022e-05,-0.000727815350560768,-1.49031897143104e-05,-0.000262181692376018,-0.00149318470820781,-0.000126942113087836,-0.00708926790399111,-0.00298374705857096,-0.00626297685128296,-0.00218021990840178,-0.00342543340622115,9.14179375044455e-05,-9.31130912880107e-05,0.000141076079449576,-0.00289666681866407,-0.000189450109793654,0.000114293573130198,-8.64056656517675e-05,-0.000169484044915791,-0.00237009923425813,7.15879699582089e-05,0.000102536539392517,-0.000128976157726335,3.39292307236505e-05,-0.000126942113087836,-0.0010714631318649,0.000152173420748802,-8.26835940772597e-05,0.00027369760610263,-0.0009801661378388,-0.00247981624738181,-0.00111120387277097,-8.39381902650871e-05,6.09565303673065e-05,-0.00709775215314945,-0.00107479110740094,9.14179375044455e-05,1.03233624999532e-05,-0.00167856395755628,-0.00649601490776952,1.03233624999532e-05,0.00013344350978528,-0.00650971080202734,-0.000181781228444144,0.000129324811321219,5.1517453566241e-05,-0.00149332160550575,-3.94319419836364e-05,-0.00173129519758231,0.000497932164395642,-0.007010544320047,0.000109510673174995,0.000138502673946661,-0.00707280919943631,0.000334091593559904,-0.00279793047162613,-0.00715128381294416,-1.81217220038832e-05,-3.98327263448905e-05,7.26646350033278e-05,-0.00676253384154801,0.000119473027894834,-0.00166531151418514,9.94295653722332e-05,-0.000602439598684334,9.34935784222546e-05,-1.16120418667265e-05,5.07624590362354e-06,-6.17705022021298e-05,-0.000321146060311861,-1.97045038135002e-05,0.000359403805781255,-0.00132918696451956,-3.83451313625827e-05,-0.0016850142817546,-0.000660869399947472,0.000220284691303085,-7.94763260589804e-05,-0.000509837852429307,-0.00638861420704195,-0.0079851135305784,0.000116606555566001,-0.0035372255098105,-0.000985271955376454,5.3506050213592e-05,-0.000129353068496485,1.57501187345588e-05,-8.39381902650871e-05,4.56812248499361e-05,-8.51788033200407e-05,2.52196840682117e-05
"22:26150584:T:C",-0.00589188381203698,-0.00425524187719484,-0.00656286531447847,-0.00368595998654442,-9.22751873915217e-05,-0.00485264596517077,-0.000570770897475814,-0.00429348246929795,0.505532061720524,0.000235237732261417,-0.00161704419457465,-0.000975427120991412,-0.00110045122545621,-0.00275686333323222,-0.00122778583149685,-1.9918869339719e-05,-0.00342059965269748,-0.00140383272678335,-0.0121419112993366,-0.00228821227582809,-0.00269780028733724,-0.00012524813204795,-0.00255358087314894,-0.00479657719761573,-0.00437074867514742,-0.000764277225388632,8.00486787682075e-05,-0.000906150095383751,-0.0028548184866537,-0.000184577006552722,-0.00247155917981701,-0.00152019445534801,-0.00668347631487398,-0.00422813562711966,-0.00327112757159043,-0.000114361772872051,-0.000191745498197449,-5.47977178531056e-05,-0.00290721726641863,-0.000103085115743973,-0.0012485940403284,-0.00325777747121014,-0.00533770647006371,-0.00198537496171625,-1.9918869339719e-05,-0.00256545666701946,-0.000935768565759609,-0.00118144041596846,-0.00693116521368431,-0.00155775884898457,-0.00034589728763379,-0.00194250580533684,-0.00156273835504983,-0.000103085115743973,-0.000373470111951768,-0.00433719566734103,-0.000103085115743085,-0.00147632486874727,-0.000114074644109508,-0.00480735349304595,1.27880105686984e-05,-0.000506621954722064,-0.00558109443333787,-0.00479605799217797,-0.000666608875047103,0.000143298178964635,-1.9918869339719e-05,-0.0121707969620028,-0.0101076346727922,-0.000514945236800735,-0.000870447400746599,-0.00041727986789919,0.000188224004442183,-0.00996812766820465,-0.00550815728008747,-0.00330827375981446,-0.00491001329741669,0,-0.00278184691147221,0.000358006395426713,-0.00516704546722213,-0.00264482216915773,-0.00638147853994653,-0.00368258589796611,-0.000230172893382452,-0.00271994658352437,-0.00510438264510427,-0.0035026022975293,-0.0090731392007628,-0.000374158184095919,0.000255540179954217,7.09092434405534e-05,-0.000512381291377206,-0.00217735294560395,-0.000221307122549419,-0.00403613777657785,4.25752468702356e-05,-0.00290663395010604,-0.00624889865760236,-0.00278491224204824,-0.00361994748178951,-0.0028842420612416,-0.00253356584260533,-0.00293324529808547,-0.00416070744601882,5.30271081000677e-05,-0.000951170477764052,-6.54019848722598e-05,-0.00518873867357694,-0.000405816746882337,-0.00109707220738375,0.000310310012298309,-0.000396615781517617,0.000191450081568512,-0.00474407700196888,-1.29478307853148e-05,0.000443673689618507,-0.00291243378741068,-0.000113179504569239,-0.0012682293442885,-0.000722102426036209,-0.00371432401883798,-0.00348928565855999,-0.00373764615249517,8.73271783516927e-05,-0.00336528745070863,0.000296123418444871,-0.00190854276983377,-0.000578818264912684,5.86006740750378e-05,0.000451330453740795,-0.000283688366395474,-0.00652085270061376,-0.00296132146104044,-0.00379077514263493,-0.00282351722075447,0.000216511691668586,-0.00634567124034646,0.000186816185135719,-0.00727456409557803,-0.000144498334797127,-0.000745802136328244,-0.0135697892098414,-0.01088944802374,-0.000412018417509152,-0.000779603616159363,-0.000909770393621834,-0.000851720764867725,-0.00511030779382349,-0.00889284467081675,-3.01261704001021e-05,-0.00202599464814313,-0.00368258589796611,-0.000312627856085435,-0.00114775199936101,-0.00830779533374848,-0.00231513815343476,-0.0116875750960119,-0.0061530946749202,-0.00808929124819091,-0.00441547247196716,-0.00184198716929718,-0.00296341762019292,-0.000114361772872051,7.09092434405534e-05,-0.00505431643284204,-0.00307554650961617,0.000132797729387235,-0.00223660287807093,-0.00672675879084039,-0.00397516864431857,3.47701397185318e-06,-0.00493535289614089,-0.00370785906116877,-0.00480011432716587,-0.000287826374901101,-0.00611190943366502,-0.00361539976681335,-0.00582783355522043,-0.0165101228801099,-0.00806438472522952,0.000296123418444871,-0.000187845747033677,0.00030327409211317,-0.000667461871205255
"22:26150608:A:G",8.9905897435294e-05,-2.24079987969361e-05,-8.56418820696092e-05,8.11987260211922e-05,2.34078448224651e-05,-3.61355939437757e-05,-0.000444764201001036,-6.44698353200468e-05,0.000235237732261417,0.00877125064606599,-9.23697753059116e-05,1.23789038353195e-05,-0.000358748020828692,-4.99513165026499e-05,-5.8861674260946e-05,3.43863645024811e-06,5.3904489952572e-05,4.07503868142811e-05,-0.000214218075425876,-1.67555222185811e-05,0.000358065921211903,2.89947389155998e-05,0.000184187790006618,-1.19135520062486e-05,-0.000202698128537016,0.000129854462191048,0.00182032951166811,7.46600608492187e-05,0.000206321406691856,-0.000191748441332962,-0.000918169134945579,0.000112687455875005,0.000338329920534619,-2.64602995416752e-05,0.000179360139058282,-3.92154326034344e-05,-0.000349585098448735,8.74221733226932e-06,0.000127368662679039,2.5249546020234e-05,0.000472299383308616,-0.000513264648414946,4.88557650371035e-05,-1.19135520062486e-05,-0.000566881286767185,-3.92154326034344e-05,0.000159369389090891,-0.000505029438350846,5.69766840827768e-05,6.33130099636503e-05,-4.84043352004804e-05,0.000127368662679039,-0.000163952321875271,2.5249546020234e-05,4.6939700572679e-05,-0.000154475905601359,-0.00346743230092983,8.56828786828245e-05,2.71117295014278e-05,-0.000258684176776214,-9.54111633344468e-06,-0.000154449131215983,2.31875642953128e-06,-1.52710110139509e-05,-8.68994249207944e-05,7.04211646267439e-05,-0.00405956313371814,0.000343344340183904,-0.000303984781738542,-0.000186956422682627,-0.000102511704201724,-0.000239149993708665,0.000122679824811733,0.000626675156359724,8.92462319210807e-05,1.60996300069272e-05,-0.000128391076872347,0,0.000184432632373444,-0.000434752238290592,3.87347564254625e-05,1.42880344302654e-05,-8.35936697649586e-05,0.000543126204520128,-8.30837161993614e-05,1.60996300069272e-05,-7.65820830537223e-05,-0.000623016919352182,0.00027398410299817,-4.0729488262059e-05,0.000124346262857955,-2.01675825648451e-05,0.000235902661073872,-4.89984689799883e-06,3.28246490211015e-05,0.000192204466625157,-1.52710110139509e-05,-0.000233715492560016,-0.00016734186226941,0.00174914223750822,-0.000579572428066832,0.000161903862102797,8.11987260211922e-05,0.00012840204931841,1.34085861187572e-05,9.40273836409489e-05,-9.49972306587554e-05,0.000145384212666855,0.000374087683818303,-0.000148936105903275,-0.000610450319798339,-8.81429283712265e-05,0.000445256332259447,0.000109155034719421,7.32435467458714e-05,0.000105491181860984,0.00108844362449201,3.47722765541292e-05,-0.000129264250568362,-0.000798173248637291,0.000156946960780502,-8.4370060693395e-05,0.000283745127250157,7.89853912035454e-05,-0.000281470080128798,-0.000410249434763976,0.0009122872454288,6.23313408922854e-05,-4.96351267109674e-06,0.00010222169624452,9.40273836409489e-05,1.05502346174902e-05,-0.00030051887950755,-0.000152957731449632,1.05502346174902e-05,0.000137484510118746,0.000138587721803418,1.60996300051508e-05,-0.000305033370164409,5.28707469422685e-05,0.00014008708479718,-4.03844966276878e-05,-7.28046943789806e-05,-0.000240674049989842,2.00490004171883e-05,-0.00075323269624139,-0.00176397682032103,2.41935417335526e-05,0.000347761940510338,0.000391085243176548,5.18675462579665e-06,-1.85535924321911e-05,-4.0729488262059e-05,7.46600608492187e-05,5.55404729629672e-05,0.000122903016739784,-3.62510767617508e-05,-0.00036739589871182,0.000354493510156928,9.60328625252416e-05,3.60135212496004e-06,5.18675462579665e-06,-6.30914406318794e-05,-3.92154326034344e-05,-2.01675825648451e-05,-0.000915200408154959,-0.000624013227646714,-3.92154326034344e-05,-3.71854514824577e-05,4.93090980597799e-05,0.000227860051862372,-8.11836665635113e-05,0.000192583836240878,-0.00103068896727176,5.3904489952572e-05,0.000120077189435186,0.000325148779456441,4.27894779715388e-05,5.49121539910047e-05,-7.34174646446206e-05,1.60996300069272e-05,-8.56418820696092e-05,4.68814428815634e-05,-8.68994249207944e-05,2.57888077381807e-05
"22:26152702:T:A",-0.00231156297423718,-0.00926661926743755,-0.000767473184208001,0.000104512355246555,3.12035622354045e-05,-5.04699639920503e-05,0.00017283277907687,-9.05183602997184e-05,-0.00161704419457465,-9.23697753059116e-05,0.348674852932824,1.60313227075548e-05,-0.000231731925483203,-0.00293596353989933,-8.29158346791203e-05,-0.00512781488006286,-0.00177573529687614,-0.00210909275868776,-0.00126740393622926,-0.0101904471343013,-0.000650724492679444,-0.0044463900310614,-0.00267714611575265,-1.68388610974901e-05,-9.94639889357884e-05,0.000162635979374492,-2.98234392630548e-05,9.65893024078568e-05,-7.67244764583452e-05,-1.13054497123954e-05,-0.00254998246644522,0.00014242006842391,-0.00461445554515816,-9.80685892724154e-05,-0.00021214077422993,-5.4587889373181e-05,-0.00119698309521032,-0.00239132200670689,0.000159788498046431,3.35517021765597e-05,-0.00309301650453175,0.000451554496893714,6.41475881408837e-05,-0.00164748060014741,4.46827946554151e-06,-0.00288552281679966,-0.00322947135427221,-0.00513383892695884,7.42364195689404e-05,8.20576254554339e-05,-0.00567321332262871,0.000159788498046431,-0.00384468378369185,3.35517021765597e-05,6.09393257384738e-05,-0.00775050034036351,3.35517021765597e-05,0.000109917292464345,3.5922382568998e-05,1.4982306172584e-05,-0.00166009300532721,-0.000640705018214227,-0.000927452372756932,-2.12546851310336e-05,-0.00341013318031269,9.14266575522404e-05,4.46827946554151e-06,-0.00822717162620901,-0.00784611991843631,-0.000227642699004882,-0.000412655127115968,-0.00619575921274063,-0.00161262234116588,-0.0063724596759589,-0.00105944456230578,-0.00180918219497617,-0.00418927673480907,0,-0.00394626612888693,-0.00012374118692815,-0.000586052416939431,-0.000270211214295379,-0.00133890324858799,-5.66152052368096e-05,-0.00123652288833753,-0.00230647660762262,-0.00432116340636934,-0.000397747334144327,0.000219255389860784,-0.00111810653850775,-0.000110282827912478,-2.77133190191847e-05,-0.00109722877323515,-0.000104183173180949,-0.00206817150859084,-0.00555623383653447,-0.000167346891461584,-0.0014134371759944,-0.000392468904549581,-0.000764730894735166,-0.00203709272475194,-0.0018885283874539,0.000104512355246555,-0.00754712433799298,-0.000779074495625309,0.000120417089936709,-0.00146019936818398,-0.00165570062885578,-0.000846299757176538,-0.00119931677218155,-0.000116831024110198,-0.000125124509525953,-0.00130947093937817,-0.000189980744901952,-0.00178319504326652,-0.000180539766535759,-0.00575568116370562,-0.00208463585035812,-0.000449609370938298,-0.000511976747034737,-0.000126609264835764,-0.000119953760978397,-0.00159558214168332,0.000101209692298987,-0.000247837348746671,-0.00196479839426855,-0.00500956765631599,-0.000123177093190208,-0.00168143900897721,-0.00431942557754983,-0.000568467912772874,-0.00185937307173578,-0.0036180711025362,-0.011515476446792,-0.00236014974177667,-0.000307963555178148,-0.0033617081010533,-0.00214252813949933,-0.0045737657242455,6.91445652725164e-05,-0.00117584135852411,-0.000260655549568334,-0.0074511760193996,-0.00108026464860078,-6.91603364320059e-05,-0.000719739328490121,-0.00806833251723127,-0.00714446522947121,-0.00850815226382107,-0.0070027263671526,-0.00201825361289654,-2.55820275940621e-05,-0.00111810653850775,9.65893024078568e-05,-0.000607663195522967,-0.00286240864254417,-0.000525827600912798,-0.00186299972352355,-0.00313639708157343,-0.00334774606670418,-7.53362723218132e-05,-0.00252238141364547,-8.86475624017891e-05,-5.4587889373181e-05,-2.77133190191847e-05,-0.00612162832904595,-0.00204294202815447,-0.00291151250557853,-0.000586590216239635,-0.00206169735524719,-0.000515738122119025,-0.00712987563632073,-9.7759207772441e-05,-0.00629145365627393,-0.00711403011131306,-0.000587080015964858,-0.00816765548232246,5.57373681946416e-05,-0.00254998246644522,-0.00256042241702126,-0.00230647660762262,-0.000767473184208001,6.16839119169654e-05,-0.000464000956768018,-0.00188079846321898
"22:26153415:G:A",-0.00314273927187969,-2.70248143738883e-05,1.54981522006992e-05,-1.9619981247665e-05,-5.12039849809298e-06,6.9154646809011e-06,-0.000537207985575883,1.21118711717827e-05,-0.000975427120991412,1.23789038353195e-05,1.60313227075548e-05,0.190055710436749,-0.00451747688151549,9.16588607946522e-06,1.09959934633252e-05,-8.20818851110516e-07,-0.00486783501276822,-1.15930300728095e-05,1.37234459991475e-05,-0.00280077681378721,-0.00218865873220242,-6.54608342820495e-06,-0.000974587463436372,2.1563180432338e-06,6.68480544696592e-07,-0.00126082830528773,4.39685253894595e-06,-1.77176378848287e-05,-5.83930591364634e-05,-0.00205445943788352,-1.28037555171545e-05,-2.85400146884385e-05,-0.00147235557165537,4.78642187129452e-06,-0.00013088739722722,7.57604324963523e-06,-1.01481257956948e-05,-2.10656857291269e-06,-0.00104658500381127,-5.58744881473672e-06,-0.000181935597857397,-0.000811780432486309,-1.11513899581084e-05,-0.00204751246501633,-8.20818851110516e-07,7.57604324963523e-06,1.26751010487425e-05,-0.000408752273328261,-1.3374121979659e-05,-1.51472700515853e-05,-0.00024792286537334,-0.00104658500381127,9.85707933054414e-08,-5.58744881473672e-06,-1.130511803904e-05,-0.00430214120247419,-5.58744881473672e-06,-2.09455335431485e-05,-6.06261406321806e-06,-0.00185097139307455,1.75940397006968e-06,2.47148505962969e-05,6.49610317537963e-07,2.92938334567339e-06,1.57284018147408e-05,-1.65036780046535e-05,-8.20818851110516e-07,-0.00135295035664651,-0.00331131169627863,-2.20796844132565e-05,-0.00150239230497373,-3.56395624070416e-05,-0.00054990777340258,-0.00482121192072693,-1.56714011838588e-05,-0.00225272354213502,-0.00218462194990465,0,-5.0913102038308e-05,7.20520574049033e-06,-0.00245074439199833,-0.00470628904500447,-0.00395344674249598,7.89776159049183e-06,-0.00152420282324961,-3.93007822285796e-06,-0.00343016536104468,-0.00347161915633976,-8.23205040259012e-05,7.89776159049183e-06,-0.00228735251559442,4.03944277937995e-06,-0.00209200917034291,-0.00395520767397706,-7.53871917336113e-06,-3.08118222607234e-05,2.92938334567339e-06,-0.000172919586750808,-0.00487137841425778,2.16186625197068e-05,-0.000486274720223889,-0.000263271923900632,-0.00140048793236147,-0.00391560995483431,-0.00501331569156971,-2.27798320047157e-05,-0.00380755250923404,-9.99475974081676e-05,-0.00022456249781122,-0.00307981460707207,-3.0113729379444e-05,-0.000183541012928501,2.64578665154502e-05,-0.00172713404295699,-0.000669365249176934,-2.62836559654644e-05,2.19406544799128e-05,-0.00254015198609103,2.16186625197068e-05,-0.00167972596590626,-4.18140070648221e-05,1.52638462678212e-05,-0.00035045609882367,-0.00102072002916476,-0.0016688838202672,-0.00317437763087103,1.54981522006992e-05,-0.00435678516960092,5.25111190086136e-07,-0.00548190626574563,-2.27798320047157e-05,-0.00229389346005249,-0.000994520080098482,-0.000227618044089439,-2.55038031049537e-06,-0.000205586733174279,-0.00537677484856225,-3.93007822374614e-06,-0.00170689497360499,-1.22433301310565e-05,-0.000174122572731861,-0.00695682499211525,-0.000793952364325889,-0.000164647385267003,-0.00208563467770073,-2.85400146884385e-05,-0.00170452085388106,-0.00155859477115428,-0.000348948982780151,-0.0107883316535222,-1.24196394946097e-06,-0.00187005919606875,7.89776159049183e-06,-1.77176378848287e-05,-0.00232701495887166,-2.91393290181574e-05,4.04918003837906e-06,-2.59827490234343e-05,-0.000159095257378894,-1.76349236040707e-05,2.1563180432338e-06,-1.24196394946097e-06,-0.00122371083173167,7.57604324963523e-06,4.03944277937995e-06,-0.000388850111410655,-7.03805163926319e-06,7.57604324963523e-06,2.51032461040523e-06,-2.41028023055812e-05,-0.000102330790123339,-0.00186572482727776,-0.00277752222131245,-0.00292535132553695,-0.000675563617075881,-0.00043860180070876,-0.00726988301562637,-0.00184550756918611,-1.28037555171545e-05,4.75923486220609e-06,-3.93007822285796e-06,-0.00105079434144972,-1.06194351445765e-05,1.57284018147408e-05,-0.0023400701783034
"22:26156431:C:G",-0.000712251368571781,-0.00789507132678002,-0.000321680776684374,-0.00579796885033801,0.000170421398355103,-0.00016807698821264,-0.0030799986999952,-0.00170892255808219,-0.00110045122545621,-0.000358748020828692,-0.000231731925483203,-0.00451747688151549,0.611103793041579,-0.00352796357919916,-0.00665711912081424,-0.00025396699606528,-0.00416220559505742,-0.0113782275958658,-0.0120147313063153,-0.00144081889969616,-0.00803840152124691,-0.00248835389214896,-0.001919544822099,-0.000245633595313599,-0.00115710751929754,-0.00327258867032354,-0.000191236906749381,-0.000377146155360997,-0.00470697808859688,-0.00113362602197142,-0.000496994618880642,-0.00430828329143784,-0.00460173482557957,-0.00118774700097291,-0.00408841074357147,-0.00117661589740869,-0.0118823188122361,-0.000357578236335421,-0.00219194490996255,-0.0056329121570613,-0.00629140150778307,-0.00546032590592915,-0.0020887228232267,-0.00648374377903238,-0.00265799545666567,-0.00380684313622659,-0.000441621653943347,-0.0196527428678697,-0.00374188184499324,-0.0013448666868543,-0.0112212400375111,-0.00222352671446124,-0.00103730786662304,-0.0056329121570613,-0.00322046898470241,-0.00750192801170435,-0.00150213140686795,-0.000773173134458016,-0.00342947201095267,-0.0023793768410183,-0.00179145230570965,-0.00648940419798993,-0.00111969312112548,-0.00698623890935668,-0.00203606214978969,4.00086920375742e-05,-7.39224129908678e-07,-0.00796678588887989,-0.00152895920403706,-0.00393199601000171,-0.0023789158500116,-0.00104811034694086,-0.00225392017774384,-0.00189137544924556,-0.000678881096554562,-0.00702193470529844,-0.00356216813882471,0,-0.00275209459573977,-0.00115449328711437,-0.0053855732483683,-0.00382356461551048,-0.00395818095658873,-0.00015102938018785,-0.0102462281797253,-0.000535154946760041,-0.000587737499171848,-0.00185509120406691,-0.0124567147395958,0.000106799173457794,-0.00971195196639929,-0.0016535762771035,-0.00573807563786977,-0.000657603994487665,-0.000753349825827421,-0.00178296739439743,-0.00227421718837828,-0.00550713644649781,-0.00224280268348709,-0.00342831103762409,-0.0014336502430945,-0.00976476239561919,-0.000388872281672725,-0.00955942840543189,-0.00238636056880281,0.000245357813864366,-0.00277955025343335,0.000104961663243142,-0.002948289460452,-0.00379978589319752,-0.00296672052843139,0.000184077731153032,-0.00222859200100833,-0.00234678004145117,-0.00315651288886176,-0.0113146441977823,-0.00178539156904556,-0.00368193960939367,-0.00313403102219167,-0.00270644282246257,-0.00524225869371087,-0.00108864791034513,-0.000772626388306108,-0.0022354550627619,-0.00238898836950563,-0.00679702145685379,-0.0026657844352389,-0.00183568133490475,-0.00130736087753514,-0.00288212405128663,2.10527077681988e-05,-0.00274343396215038,-0.0050329185086273,-0.00368157464965746,-0.00650733582647156,-0.000873827856277209,-0.00247721559262537,-0.000413987914837932,-0.00327663211707252,-0.0141588809512205,-0.00351362873152716,-0.00885330216052571,-0.0012139378977496,-0.00385452033785061,-0.00184772820205703,-0.00058882113114711,0.00016897517368486,-0.00754277392386005,-0.00089847569611079,-0.00150670189388036,-0.00586277713040051,-0.00432392180778951,-0.000459365261950673,-0.00240578416999426,-0.000160341774676276,-0.00400342416219912,-0.00636793407499603,-0.000777880764088135,-0.00235975095731611,-0.00483076414727446,-0.00031556858197046,-1.12252223125608e-05,-0.00260846884841559,-0.00158100255051874,3.32155564395364e-05,-9.758080612432e-05,-0.00427751822507094,-0.000133563818426552,-0.00571058248472456,-0.00278446590926595,-0.00501925648332824,-0.00332130002692521,-0.0098995750282751,-0.00398659502103271,-0.00179689844300368,-0.000839643060394302,-0.00759515500891705,-0.00642464060652825,-0.00300020281359714,-0.00493565337101254,-4.321352012715e-05,-0.00167429151024301,0.000318057178697373,-0.00348461932751576,-0.00580361098549398
"22:26158448:C:T",-0.00386391393026075,-8.36492722626758e-05,-6.58020054631336e-05,5.56493400685198e-05,1.67028418900372e-05,-2.66798901726872e-05,-0.00682443650997655,-0.000445527451311101,-0.00275686333323222,-4.99513165026499e-05,-0.00293596353989933,9.16588607946522e-06,-0.00352796357919916,0.25489666911084,-0.0011633261214099,2.56097835649172e-06,-0.0030062618610458,2.9061392717189e-05,-0.000451153891191325,-0.00425260236473157,-0.00414131233339221,2.07168089421117e-05,-0.00139601480070395,-0.00279910651757209,-0.00161644747892531,8.54712220181852e-05,-1.60121443997241e-05,-0.00144300787607143,-0.00319160066536117,2.18318272704465e-05,3.84240131410252e-05,-0.000129790477164882,-0.000484559038687937,-0.00148439713538284,-0.000206170651260607,-0.00115756777203746,-3.80048020121038e-06,6.48852070650463e-06,8.39669236158969e-05,1.8029444904144e-05,-0.00468871766525059,-0.00163780729200447,3.42414224165921e-05,-8.47506271917098e-06,2.56097835737989e-06,-0.00115756777203746,-0.00144075437759916,-0.000393421305217245,-0.00231479723161776,4.41637889787572e-05,-3.58564508253778e-05,8.39669236158969e-05,-0.00171366022088648,1.8029444904144e-05,3.33991008245604e-05,-0.00589853936382445,1.8029444904144e-05,5.85920481830371e-05,-0.00281402433715616,-0.00100378234818965,-0.00155722208497089,-0.000124193777945258,-0.00257536285489657,-1.1033826705642e-05,-0.00560201777490921,4.84909021789548e-05,2.56097835737989e-06,-0.00561392444185937,-0.00182658930580493,-0.00177213235595186,-7.21471813225349e-06,-0.000371145363505576,-0.0018612582932187,-0.00431238164027459,-8.83912792106756e-05,-0.00325853894482631,-0.00392661704189434,0,-0.00319496433917088,-0.000202583145063606,-0.00189994247243863,-0.000717957022934534,-0.00457341268614631,-3.03013759879178e-05,-0.00108737754733301,-0.00118907371776977,-0.00106534741435826,-0.00198044874081038,-0.00195419788111284,-3.03013759879178e-05,-0.00142018777399766,-1.47846001974372e-05,-0.000687211561979151,-0.00129099467127958,2.34505635088311e-05,-7.92061587580051e-05,-0.00149714233125398,-0.000268114439079703,-0.00282147396861587,-0.000102214840437931,0.000206924962054433,-0.0012988004314245,5.56493400685198e-05,-0.00906851342367876,-0.00349114848145238,6.35553535452971e-05,-0.00260435824394278,9.47164010440815e-05,-0.00547109766132525,-0.00332393891776572,-0.000653033927081381,0.000247674018066135,-0.00106957177940714,-0.00395311277466703,-0.000998653485142498,-0.000286832576088081,-0.000104029176988263,2.48351591700668e-05,-0.00084696844005272,-0.000391194599386413,-0.0033968899233594,-0.004328944363726,-0.000880105957932642,-0.000467096795841115,-0.00190483079247628,-0.00017746886814507,-6.58020054631336e-05,-0.00147356249818031,-0.000172514509370281,-0.00454797875092439,6.35553535452971e-05,7.82120870645997e-06,-0.00265644163033008,-0.0104154111461421,-7.40497554119202e-05,-0.00247763913452026,-0.0034401455814681,-0.0019075962417423,-0.000786683291270407,3.70183653854994e-05,-0.000133898119311304,-0.00159081403385741,-0.00324524523781466,-0.00127063541980288,-7.18180183039152e-05,-0.00407804188769756,-0.00501611131034529,-0.00162037286060635,-0.00361051571217175,-0.00100583417479205,3.85854529039165e-06,-1.35457953920337e-05,-0.00168650952268834,5.13207605674637e-05,-0.000237825269027603,-0.000105659477083186,-0.00137827941571622,-0.0066971039866992,-0.000639152802494714,-0.000113755308414731,-0.000110488977745682,3.85854529039165e-06,-4.77164718803991e-05,-2.91056797703249e-05,-1.47846001974372e-05,-0.00378921538655064,-0.0001037843141658,-2.91056797703249e-05,-0.00136768732115033,-0.00310458648900358,-0.000613458656880894,-8.5300129205379e-05,-4.11157803581474e-05,-0.00521024272117465,-0.000590561832579439,7.95158113726657e-05,0.000296966569583113,-0.00184408041561834,3.84240131410252e-05,-0.00164349340878545,-0.00172244283650702,-0.000616805736701309,3.28699000817778e-05,-6.68558627188176e-05,-0.00103387476203487
"22:26159696:A:G",-0.00776833430330814,-0.0021682534251406,-7.69303471299665e-05,7.0027412275131e-05,2.0467961396875e-05,-3.1971087394389e-05,-0.00502193411634178,-5.76067266058189e-05,-0.00122778583149685,-5.8861674260946e-05,-8.29158346791203e-05,1.09959934633252e-05,-0.00665711912081424,-0.0011633261214099,0.324788589087474,3.06056601750981e-06,-0.000130134600651033,3.56664903371495e-05,-0.000126247662815437,-0.00686132040324861,-0.00317899055140458,2.53775089626984e-05,-8.70558258778686e-05,-1.03841247405256e-05,-0.00149410245026793,0.000110439606295643,-1.92387352653256e-05,6.44395097708639e-05,-0.00302049860191378,2.63920523888572e-05,4.7703035468416e-05,9.63904588706654e-05,-0.00233208927938033,-0.00136485949419551,-0.00111860316995305,-3.4769546203961e-05,-0.011744357626986,-0.00167312998777724,0.000108375745996092,2.20877740915171e-05,-0.00104310484760983,-0.0082617575894588,4.24531527150052e-05,-1.03841247405256e-05,3.06056601839799e-06,-0.00103992101257777,-0.00132735288732544,-0.00470540113711149,-0.00218061420167714,-0.00245081202609665,-0.000259182777768707,0.000108375745996092,-0.00159044156026233,2.20877740915171e-05,-0.0016744187025477,-0.00177498460877912,2.20877740915171e-05,-0.00225950781084716,2.37242054810238e-05,3.92434759577398e-05,-0.00143515956846585,-0.000141170442989669,-0.0018599794961256,-1.33980358771879e-05,-7.81002169212286e-05,6.08072769630041e-05,3.06056601839799e-06,-0.00142565246942894,-0.0101832773257149,-0.00254661058048278,-9.24142957581253e-05,-0.00128412703555014,0.000104746133344769,-0.0027384215761117,1.26589274112021e-05,1.4289180221283e-05,-0.00429402584714289,0,-0.00303013401363295,-0.000200827192817776,-0.00262722214792621,-9.13571272525004e-05,-0.00309329753826226,-3.61465709701747e-05,-7.45522085381367e-05,1.4289180221283e-05,6.45029099102246e-05,7.57895925724839e-05,-0.00224884352004651,-0.00454611183925113,-0.000229156422482113,-1.78013482550199e-05,-0.0107068283964211,-3.79073415945896e-06,-0.00193947397711192,-9.92001716593194e-06,-1.33980358771879e-05,-0.00213515097526784,-4.30121679508844e-05,-0.000117389111534472,-0.00179575004339938,-0.010397475834429,-0.00215044636212713,-0.00531143681573099,-0.000763638668808575,8.06701361772966e-05,-0.00119195533054217,0.000123271085303855,-0.00466724194205614,-0.000900487743233924,-0.00512834913651083,-7.92575598600465e-05,-0.000158075634121957,-9.65588174803855e-05,-0.00181417373172454,-0.00198635413199355,-0.000119339999527845,3.0441262921066e-05,-0.000117389111534472,-0.0086586502938415,-0.00431312336801781,-7.57477469761625e-05,-0.00380406895135099,-0.00377690413040366,-4.36949356839023e-05,-0.00853344668301581,-7.69303471299665e-05,-3.39132767228634e-05,-0.00145875914236271,-0.000115004233720128,8.06701361772966e-05,-0.00287079535448953,-0.00252073498243988,-0.00556388450342293,-0.00164384130909756,-0.00203684675311777,-0.00240399963853655,-0.00178109793443859,-0.00389899688526452,4.59351775035088e-05,-0.00484494093490007,-0.00135966859559655,-0.000742622803985071,-0.00337636037045907,-0.00142090277395468,9.63904588706654e-05,-0.00211365417633669,-0.0044923970857349,-0.00165697709882462,-0.00413678470455547,4.61469325063746e-06,-1.63489267341888e-05,-3.61465709701747e-05,6.44395097708639e-05,4.85309323385863e-05,-0.00163285576650818,-0.00468779889174797,8.78696248785005e-05,-0.00607686582190903,-0.00157791920502071,-1.03841247405256e-05,-0.000173064192027894,-5.63383461535949e-05,-0.00103992101257777,-1.78013482550199e-05,-0.00159304813051264,2.70479430177772e-05,-3.4769546203961e-05,-0.00700320151272127,-0.0041649889360218,-0.00184181652008153,-0.00313879467343181,-0.00159645353334259,-0.00785555622902123,-0.000130229504275547,-0.0075278567911754,-0.0054174832787055,3.74454365870136e-05,4.7703035468416e-05,-0.00328826783683933,-0.00281925440024988,-0.00546902674173477,4.07384542366884e-05,-0.00020112055697119,-0.00167151110337205
"22:26161487:C:T",-0.00537202247512614,-0.00551516160884624,4.30683924879105e-06,-5.43056676427511e-06,-1.42075762976646e-06,1.92814049881918e-06,-0.00160028127940226,3.36559472824405e-06,-1.9918869339719e-05,3.43863645024811e-06,-0.00512781488006286,-8.20818851110516e-07,-0.00025396699606528,2.56097835649172e-06,3.06056601750981e-06,0.213319715901408,-3.8263371839875e-06,-2.65394565790444e-06,-0.00145187729650065,-0.00554485022014539,-0.00648334110501203,-1.81071460403359e-06,-0.00188516765068503,6.08901211229806e-07,-0.00348352347517178,-9.24126232160205e-06,1.22150336778759e-06,-4.91064531704666e-06,-0.000374174728067445,-2.03622692929173e-06,-0.00449793272670362,-7.89321355032513e-06,-0.00155236932051483,1.34687225195051e-06,-1.37554714205734e-05,2.10868806060915e-06,-0.00536281208114442,-0.000277887599446025,-9.01960128274482e-06,-0.00291085141245961,-0.00058109582991861,-2.49930586520009e-05,-3.09189531577658e-06,6.08901211229806e-07,-0.00145267737434462,2.10868806060915e-06,-0.00148300939186718,8.07994216067698e-06,-3.69954311452148e-06,-4.18383548694834e-06,2.47236790595906e-06,-9.01960128274482e-06,4.7098748012786e-08,-0.00291085141245961,-3.11031359601088e-06,-0.00548535589851085,-0.000860546541556317,-5.79260678890137e-06,-0.0016462175856029,-0.00126691865769502,-0.00557534718631914,6.86500511903887e-06,-0.00539237398639081,8.20164051340555e-07,4.36979587625785e-06,-4.57864691139065e-06,-0.00181364871998646,-0.00495783258749682,-0.0048636966763187,-7.04440007304186e-06,4.96542783068321e-06,8.81278014208675e-06,-8.76780179837056e-06,5.66013939007348e-06,-1.10198568048503e-06,-1.07424184214722e-06,-0.00522984298184692,0,-0.000380414457592515,1.04084960206308e-06,-2.50717378058596e-06,-0.00571498004541127,-0.00145692277927179,-0.00309182033103816,4.17762305815472e-06,-0.000208122500689356,-5.21077658532931e-06,-0.000962369946609698,-0.000471133088238318,2.19665372735989e-06,1.03192333611446e-06,1.12371728366867e-06,-0.00133125497872832,-2.95100734124532e-05,-0.000566485148012497,-1.57262747206843e-05,8.20164051340555e-07,-0.00524361890319103,-4.09245565347049e-05,6.00712313580942e-06,-0.00193081941897333,-0.0010005028387079,-5.43056676427511e-06,-9.46701313875309e-06,-0.00555279593540448,0.000617545290507948,4.59946039299552e-06,-0.000939815981898739,-0.00606896410716473,6.64701772024046e-06,-0.000919573353462155,4.43168471697675e-06,-0.00471921623138982,-0.00573008616753334,-0.00808715803169058,-0.000668492924156716,6.09510787885625e-06,-2.22128416993428e-06,-0.00453384206964635,-2.54049611925211e-06,-1.15760844847657e-05,4.24279011834727e-06,-0.00609873033412445,-5.42017226212721e-06,-1.43220599921889e-05,-0.00145917089394842,4.30683924879105e-06,-0.00538091137477537,1.63488609317142e-07,-7.16662911148802e-06,-6.3193998398603e-06,-6.97404381355682e-07,9.18584626763419e-06,-0.000275280691689694,-6.97404381355682e-07,-9.93021713124875e-06,-0.00111507827400015,-1.07424184214722e-06,-9.70874810501954e-06,-3.39048759645522e-06,-1.01681808386545e-05,-0.00523996313268071,-0.000159342462108469,-0.00146596097312379,-1.5302631259928e-06,-7.89321355032513e-06,-0.000829182518296001,-0.00522667268385124,-0.000550978948258951,-0.0054082733846208,-3.39750688027607e-07,1.02425782877447e-06,2.19665372735989e-06,-0.000415445577219842,-0.0055938014995256,-0.000344498572457219,1.53846475736685e-06,-7.16662911148802e-06,-0.00213703592257897,-0.000265394339801439,6.08901211229806e-07,-3.39750688027607e-07,3.29129625242786e-06,2.10868806060915e-06,1.12371728366867e-06,-0.000509559400585502,-1.94521041230189e-06,-0.00491894105055923,2.73688112173431e-08,-0.00549009544604484,-0.000645614568827391,3.89106460918498e-06,3.54565663407413e-06,0.000685301332373989,-0.00129562017626661,-8.37731632685745e-06,-0.00488693529574036,-2.80335034918977e-06,-3.54367719346271e-06,0.000121818071385782,-1.07424184214722e-06,4.30683924879105e-06,-2.94637584996593e-06,4.36979587625785e-06,-1.74878852288174e-06
"22:26162814:T:A",-0.00279914104768597,-0.00169453367485861,-0.0010692872248228,-0.00319267463937045,-2.24140385736149e-05,-0.00244030281190355,-0.00862521666004934,5.26583183066975e-05,-0.00342059965269748,5.3904489952572e-05,-0.00177573529687614,-0.00486783501276822,-0.00416220559505742,-0.0030062618610458,-0.000130134600651033,-3.8263371839875e-06,0.519774579562455,-0.00102761100234705,-0.00562545177115448,-0.00656995637575442,-0.0004458139159218,-2.90683799990532e-05,-0.00261456475790656,-0.00437921230391947,-0.00152990245382778,-0.00873958882589942,1.91363267827427e-05,-7.7959820862894e-05,-0.00102689244149889,-3.0947588069985e-05,-0.00295445131944483,-0.00138442774613434,-0.00978129446384646,-0.00173712186819142,-0.0017171242018863,-0.00289736748390901,-0.013943631415219,-0.00090583592130411,-0.005416060573884,-2.45913102796536e-05,-0.000416689897406286,-0.00242449353367924,0.000258779107038976,-0.00138661973777499,-3.8263371839875e-06,-0.00631296601929776,-0.00413064622079062,-0.000132401633911705,-0.00292328173118062,-0.00157837023219454,-0.0004082361482034,-0.00146887798768613,-0.00656360842561199,-2.45913102796536e-05,-0.000275437816117829,-0.00659344131700701,-2.45913102796536e-05,-0.00143013659988522,-2.68090861874626e-05,-0.00196903613256616,6.79546899551298e-06,-0.00169605038769038,-0.000474171194235318,-0.0115376297632297,6.84362717855436e-05,0.000121020031392582,-3.8263371839875e-06,-0.0178502873391517,-0.0069977427494079,-0.000107549183580247,-0.000874516864158181,-0.000361634443847514,-0.00202207838190649,-0.000598630146112722,-0.00882772183108926,-0.00678317224251934,-0.00296364898061219,0,-0.00100390773236292,2.00668944012605e-05,-0.00106571784660137,-0.00398206076819374,-0.00499441101379583,-0.00611606445019852,-0.000199440922462379,-0.00337181343074988,-0.00980884570034046,-0.000549971867121357,-0.011635238542814,-0.000472696554113305,0.000170746774433184,1.74702920139325e-05,-0.00564153884269647,-0.00552284978695372,-0.00131543185655403,-0.0012269222916359,-0.00198055056742241,-0.0127561756712655,-0.0114404605886191,9.40020761710514e-05,-0.00353059491988494,-0.00309464052026565,-8.68727875218411e-05,-0.00013656822695296,-0.00401906736701241,-9.98143087311831e-05,-0.00354259448471339,-0.00128456649982223,-0.00480372421651731,-0.00355288241178098,-0.00461434113215109,6.94929034175118e-05,-0.0016434928568847,-0.00198514388058069,-0.000114357249843877,-0.000384424440354358,9.55121073644705e-05,-4.84502112190199e-05,-0.00335090606414212,-0.0019813043092145,-0.00348289037671368,-0.000554031526348808,-0.000969009992679126,-0.0078963523164699,-0.000332958420148799,-0.00304602809894927,6.73598144329546e-05,-0.000135200455561701,-0.000388035992669344,-0.0092338759902546,0.000241461999821446,-1.19187281848454e-05,-0.00486896081611476,-0.00326210048190445,-5.77314040395294e-06,-0.000290951982719889,-0.000756234545229439,-2.28963956852013e-05,-0.00108353441670062,-0.00506608774246242,-0.00315568011060563,-0.0114782666474849,-0.00841508945454272,-0.00285521262712729,-2.94553915498597e-05,-0.000390580694141995,-0.000413784258432415,-0.00806652077164438,-0.00650487756304496,-0.00486550999529456,-5.79310290849122e-06,-0.00184996322299202,-0.00143745863820754,-7.7959820862894e-05,-9.39267272288546e-05,-0.00156097909895969,-0.000216201347851275,-0.00231100055802536,-0.00441793299120663,-0.00152114337471776,-0.00212235860505139,-0.00205145709660215,-0.00270634846387363,-0.00289736748390901,1.74702920139325e-05,-0.00639452329544454,-0.00274588041170976,3.26815674149827e-05,-0.000270554828480485,-0.0064176884235474,3.2241702437652e-05,-0.00307878256045768,-0.00577041553646218,-0.0124777647367189,-3.86661757652007e-05,-0.00258358304245121,-0.00567110809122573,-4.54498487982846e-05,-0.00304887175918811,-0.0132003163687431,-0.00395250786825319,-0.000988144190045226,-4.65003161940203e-05,-0.00733511092284367,-0.00567662812056824
"22:26163166:T:C",-0.00287511372956128,-0.000106392610845774,5.18833644163053e-05,-5.77474080865059e-05,-1.56644971252007e-05,2.18649481142918e-05,-0.000968412865224977,-0.00101074883515562,-0.00140383272678335,4.07503868142811e-05,-0.00210909275868776,-1.15930300728095e-05,-0.0113782275958658,2.9061392717189e-05,3.56664903371495e-05,-2.65394565790444e-06,-0.00102761100234705,0.293776581590877,-0.0157110522833039,-0.000617646901064361,9.15492308797283e-05,-2.00918840675968e-05,-0.00219530886526043,6.42012174889572e-06,-0.000370982371284079,-9.48834670593257e-05,1.39108512930974e-05,-5.22577287362935e-05,-0.00015839003859508,-0.00485444529135126,-3.8442501464786e-05,-8.22621234100041e-05,-0.00231761222767624,-0.000625836150162762,-0.000368632571151828,2.41657056712086e-05,-0.00375499063969542,-6.78013136923283e-06,-9.26775646847844e-05,-1.71191437878804e-05,-0.00377861807757451,-0.000244489756918931,-3.35036945084966e-05,-0.00208405471563822,-2.65394565790444e-06,2.41657056712086e-05,4.41477363910536e-06,-6.69315317036734e-06,-0.00304799160635483,-4.53777901947561e-05,-0.000722267304269941,-9.26775646847844e-05,-2.77544667781626e-06,-1.71191437878804e-05,-0.0036201386178627,-0.000973396795255876,-1.71191437869922e-05,-6.1546410752733e-05,-1.85947923778684e-05,-0.00254292690515889,5.10728277358652e-06,8.91209112863223e-05,-4.65160699558709e-06,8.98907432222984e-06,5.27814256789938e-05,-4.87303900849057e-05,-2.65394565790444e-06,-0.00304626260160568,-0.00227227403063734,-0.00115437665535634,6.04945781148558e-05,4.98305583747083e-05,-0.000316979542943407,-0.00539685212590335,-0.00399979484811919,-0.012244959714474,-0.00882990032718345,0,-0.000139952116164466,5.63985277679535e-06,-0.00165754689374431,-0.00203778504782282,-0.00225289807429574,2.52916442500251e-05,5.00488930743614e-05,-1.25705409219634e-05,-0.00202137477732833,-0.00298099507206739,-0.00130794846052495,2.52916442500251e-05,-0.000688107054616971,1.27064996986448e-05,-0.0014459576965451,-2.07480054115194e-05,-2.31522224325431e-05,-0.00129888971558323,8.98907432222984e-06,-0.00350704515198874,-0.00978285649678146,-0.00332342507887251,-0.00325759872606302,-0.00562649060713305,-0.00124667351336782,-0.000587663358365909,-0.00174845052699402,0.000173474092314052,-0.00183101817412901,-0.000177364897139931,-0.00306485929745115,-0.0028278224436189,-8.660575265651e-05,5.36670488049396e-05,-0.0014897271916805,-0.00126794104417183,-0.00403723193130823,-0.00112072922050022,7.70704934440758e-05,-2.47164137068268e-05,7.56386428166778e-05,-0.000844559378477161,-0.00102134951555133,-0.00134777718979162,-0.00347409404638377,-0.0012181405647862,-0.00350178839495019,-0.00324576974130286,5.18833644163053e-05,-0.00151980177161359,-8.44967152069387e-06,-0.00137707756115013,-6.61515852238281e-05,-0.00185778262090697,-0.00130054174976779,-0.00709029525097016,-0.00417925530098806,-0.000278581884925799,-0.00134255193942767,-0.00165082603308608,-0.00148690656158035,-3.67720979257413e-05,-0.00268524085082333,-0.00428303355137682,-0.00777855366551528,-0.000261961931057542,-0.00044196092638682,-8.22621234100041e-05,-0.00316691035410077,-0.00307630236576806,-0.000533892471272779,-0.000717039185890389,-4.00956846213774e-06,1.1484992616495e-05,2.52916442500251e-05,-5.22577287362935e-05,-0.00296393618956792,-0.00312704635132555,-0.00159213682798232,-0.00154240318070187,-0.00121668934643138,-0.00293905557271312,-0.00789564913447816,-4.00956846213774e-06,3.87598598541317e-05,2.41657056712086e-05,1.27064996986448e-05,-0.000588958796406303,-2.16108721451391e-05,2.41657056712086e-05,-0.00149733677699437,-0.00805280681112208,-0.000272202861403947,4.49053026612134e-05,-0.00843873389423511,-0.00504537904176328,-0.00517684006237307,-8.62559608894031e-05,-0.00177448937206526,-0.00546163675881761,-0.00305398223224618,-0.000512035562519664,-1.25705409219634e-05,5.18833644163053e-05,-3.19046946630763e-05,5.27814256789938e-05,-0.00612100710353403
"22:26165514:T:C",-0.00320100543482216,-0.00249083829347718,-0.000804172143296533,-0.00258428767491647,-0.000340105976379235,-0.00165446334920638,-0.00642679369225929,-0.000914992012543969,-0.0121419112993366,-0.000214218075425876,-0.00126740393622926,1.37234459991475e-05,-0.0120147313063153,-0.000451153891191325,-0.000126247662815437,-0.00145187729650065,-0.00562545177115448,-0.0157110522833039,0.71345509100094,-0.000989610147080988,-0.00154084277472943,-6.96030065316933e-05,-0.00943548188917021,-0.00035796658550602,-0.00299983222956213,-0.00367297196530902,-0.000100837277644317,-0.00216703927977502,2.86492109213832e-05,-0.00151637926941284,-0.000878088833133894,-0.00908508858100809,-0.00558889996637468,-0.00302038074423816,-0.00112373832488588,-0.000449590318762461,-0.00284413465359057,-0.00242916895668355,-0.00102808375145802,-0.00543496093448326,-0.000644153046858609,-0.0015167212005367,-0.000837520049801199,1.48821338958882e-05,-0.00250760640894132,-0.00412404232174879,-0.00432656223707317,-0.00621622725361748,-2.90136832203913e-05,-0.00248679098779414,-0.00441650082728451,-0.00102808375145802,-0.00133655187671211,-0.00543496093448326,-0.00513139783800343,-0.00278408577639855,-0.00179215525246956,-0.00189168536625139,-0.00322551632217838,-0.0042858865566715,-0.00405045145283456,-0.000262895321140988,-0.00149928898077301,-0.00682794057148772,-0.000891138581255113,0.000199484022007645,-0.00421945887460495,-0.00230462206132431,-0.00177130743248144,-0.00545075410652895,-0.00737018407203749,-0.00152315851331464,0.000183481015385567,-0.00324435997929839,-0.000782479118282442,2.84701283317368e-05,-0.00438252653726545,0,-0.00271684553944196,-0.000845961410842033,-0.00505438702344518,-0.0110203433120355,-0.00731432900432383,-0.00436835361748056,-0.00652589158628913,-0.00288027780028433,-0.00732256619868332,-0.0104408651661156,-0.00430667660044692,-0.0101497108024882,-0.00359669592885226,-0.00155813730648635,-0.00207696998915186,-0.000174474558047422,-0.000254614885264459,-0.00184524768621674,-0.00759015418861519,-0.00437134350579971,-0.00249288160360095,-0.00431508884832077,-0.0136271135898092,-0.0125106601490601,-0.008305995981293,-0.00778137007096502,-0.00226922101159355,-0.000531182114185569,-0.00598464052082281,-0.00514755941848355,-0.00347930098302207,-0.000956495030531634,-0.00202643276031678,5.00926394666479e-05,-0.00965476935783149,-0.00169338846713796,-0.00971395882767823,-0.00544886762035102,-0.00119424093817422,-0.00154804426590882,-0.00401639454479419,-0.005973657448481,-0.000729522569658414,-0.0118563248409069,-0.00295708422543983,-0.00959882569999593,-0.00713069797341159,-0.0125368462577167,-0.00217036966330486,-0.00283079363561889,-0.000752271377682856,-0.0070095029834718,-0.000202710683972818,-0.0124856591919045,-0.00622597245750978,-0.00350378179954003,-0.0112774140880374,-0.00987510615206011,-0.00671940896177148,-0.00227775544757991,-0.00470517913041002,-0.00173083507862781,-0.00170260395274369,-0.00284162360929674,-0.00729493553618576,-0.0028662688636274,-0.00243018596571609,-0.0013096893310558,-0.00158542586534471,-0.00486942691844661,-0.00362035088278523,-0.0019833267745013,-0.00213564647006237,-0.0033273542725869,-0.00479254651759398,-0.00645482035550771,-0.0019633020066725,-0.00970439712219751,-0.00305677118470316,-0.00307504896145661,-0.0046713266764371,-0.0108193416405435,-0.00639179558296998,-4.89415306637042e-05,-0.00479392071741103,-0.000149945335346402,-0.00518003352485774,-0.00292343883875645,-1.79003736482386e-05,-0.00458947648558716,-0.00452985215560098,-0.00257411040139965,-0.00689286955521951,-0.00663456736706003,-0.00451142168798002,-0.00172698686153616,-0.0040659108259673,-0.00122958659909944,-0.0130447313433151,-0.000788539083991235,-0.00222208109520405,-0.00470703900074865,-0.00413016151496004,-0.00278451295632021,-0.000237562912610123,-0.00669120889022334,-0.00219228128506632
"22:26165807:G:A",-0.000495137880169416,-0.00185394986078569,-0.00328763883714256,-0.00560955888854764,0.000252390608495467,-0.00205644503113245,-0.00412351817255363,-0.00278122446240125,-0.00228821227582809,-1.67555222185811e-05,-0.0101904471343013,-0.00280077681378721,-0.00144081889969616,-0.00425260236473157,-0.00686132040324861,-0.00554485022014539,-0.00656995637575442,-0.000617646901064361,-0.000989610147080988,0.613803519033568,-0.00803512938856787,-0.00171694334579087,-0.00789223411388251,-0.000247389336296422,-0.00298009700316371,-0.00226542887398562,-6.894098296506e-05,-0.000518515557415888,-0.00640782032424347,5.26589516174347e-05,-0.00155888411478422,-0.00482908874331578,-0.0040429533539359,-0.00491080884358208,-8.58045474680935e-05,-0.000400372904755031,-0.00125537891795258,-6.66312296857541e-05,-0.00847581001983855,-0.00160593317193225,-0.00596140166997072,-0.00243156862462701,-0.000846862332179121,-0.0057502688683515,-2.34671481438298e-05,-2.32231139110084e-05,-0.000543602959040435,-0.00159548469406445,-0.0035517185423446,-0.00132552499287364,-0.000392895705911833,-0.00847581001983855,-0.000461943058134295,-0.00160593317193225,-4.78928974789739e-05,-0.00753381369975958,-0.00528507239599385,-0.000869262987706954,-0.00589980444494742,-0.00192074196326786,-0.00424268149842,-0.00105471003825919,-0.00236541691630654,-0.0102437102768418,-0.000655180234677033,-6.54466269622844e-06,-0.00370260637220543,-0.00487786495147668,-0.00953171209439985,-0.00400574334619197,-0.00014487198304991,-0.000546401937144392,-0.000138069282983988,-0.00589576462384933,-0.00177075567698948,-0.00143007365448611,-0.00276893455549088,0,-0.00250336467703516,-0.00499346430532688,-0.000198224306480199,-0.00313348497370169,-0.00393944039234162,-0.00512199569609706,-0.00125739526806612,-0.00920622515204172,-0.00361409568966264,-0.000715781261458659,-0.000488785826143534,-0.00169713509656155,-0.005350918565449,-0.00133827547432652,-0.00132504680438261,-0.00483596677147391,-0.00180307355875708,-0.00083921458499514,-0.000693509642020196,-0.00912336978978168,-0.0218814539581906,-0.00355277608345972,-0.0244266703106857,-0.00554656545016075,-0.00257772885389418,-0.00308880021516833,-0.00300050453104905,6.17218090734895e-05,-0.00687846622306543,0.000266041994913646,-0.00465657347752524,-0.00683858029446771,-0.0038274167314496,0.000416544264730589,-0.00578668504804902,-0.000218766790142322,-0.00302820475670806,-0.00756385259410131,-0.000797797666275635,-0.00959245151905641,0.000263824178015071,-0.00321464094442003,-0.00398026265026719,0.000225559748560755,-0.00446949627489479,-0.0084489941809478,-0.000973091707861418,-0.00623949548406033,-0.00110772550941185,-0.00363499065572004,-0.00118687046061261,-0.00155396260888852,6.17218090734895e-05,-0.00432951601343845,-0.00471286921800029,-0.00778796154585759,-0.00487819714991389,-0.00259644014962124,-0.00352332224314456,-0.000368781002261898,-4.23923502919088e-05,-0.00158946378643154,-0.00370314772695135,-0.000536577142476791,-0.0103258487517239,-0.00464484254045994,-0.000253089744633783,-0.00342986527406897,-0.0003243621449176,-0.00224973097735104,-0.000837887959122874,-0.00824088662722922,-0.00248964275597618,-0.000275225805646429,-0.00168803034400611,-0.00358359854796397,-0.000281139290021937,-0.0027420608191413,-0.000494207381434908,-0.000345927779991317,-0.0106288869791489,-0.00286664799259873,-0.00505354220155851,-0.00242119361573501,-0.00202752116375304,-0.000933508600893695,-0.00154385033140247,-0.00182254762114153,-8.58896548319166e-05,-0.000933508600893695,-0.000523670735664616,-0.0070902088202689,-0.00183312285527348,-0.00915650646997568,-0.0102904923743155,-0.00197584530041173,-0.00990579161778005,-0.00103645495796822,-0.00731670995662537,-0.0025721537774146,-0.00155888411478422,-0.01470865843886,-4.88228026558346e-05,-0.00170469370597548,0.000324825465037648,-0.00193175687618918,-0.00215936004815198
"22:26166011:C:A",-0.000598874082862189,-0.00237371220123839,-0.00470985250009015,0.000160256903932066,-0.000338585058646146,-0.00311607974534311,-0.00176570935670561,-0.00423737288241899,-0.00269780028733724,0.000358065921211903,-0.000650724492679444,-0.00218865873220242,-0.00803840152124691,-0.00414131233339221,-0.00317899055140458,-0.00648334110501203,-0.0004458139159218,9.15492308797283e-05,-0.00154084277472943,-0.00803512938856787,0.672840086963844,-0.00630239006208022,-0.00614606082691838,-0.000755802636399849,-0.00408246776131049,-0.00461548095888986,0.000271519540282483,-0.00816552154761396,-0.00172349699990981,-0.0062252924173074,-0.000294443414736278,-0.00282126889935519,-0.0021830878236031,-0.00559447241689881,0.000627906035508108,-0.000291711209118084,-0.00529136378581763,-0.0031120144099761,-0.00767790474166574,-0.006219944298266,-0.0022403063023404,-0.00609852204209682,-0.000968623100894739,-0.000331880155775011,-0.00300952891821193,-0.00661120071250654,-0.00206475443304655,0.00122274982121517,-0.000268781703511856,-0.000213559812843656,-0.00908020553472966,-0.00851705530365177,-0.000703588765776697,-0.006219944298266,-0.000795923526127229,-0.00774143899468216,-0.000402486374619038,-0.000254326784835612,-0.00642289036333832,-0.000425389078154925,-0.0115646270528398,-0.00595280295934142,-0.00566762067805726,-0.0025617128976636,-0.00174491410873756,0.000585308222944114,-0.00300952891821193,-0.00587466514617008,-0.00233643112015303,-0.0116859121944537,-0.000893144877635699,-0.000318471263273779,-0.00142749333053338,-0.00757761738511942,-0.00457209005830883,-0.00235105242205247,-0.0152172094561256,0,-0.0079575432170027,-0.000826894663449984,-0.000130525384339109,-0.0158426668830018,-0.00228336294773968,-0.00651334639573609,-0.00627946267371904,-0.00174839732912702,-0.00629165730417069,-0.00509209997774551,-0.00992653326344861,-0.0126333229372744,-0.000981203299974087,-0.00119750182834188,-0.00106134374002265,-0.00634193725367016,-0.000844695950195096,-0.0145537115628485,-0.000539493316202844,-0.0128543585843226,-0.00951807001894434,-0.00321374732456281,-0.00340310483976758,-0.00457713491093203,-0.00241288833179087,-0.00208447701174297,-0.00491916221504551,-0.000716427252230645,-0.00342882352830953,-0.00207500370789271,-0.0074441834223693,-0.00248032504197848,-0.00026819318636484,-0.000775785876737878,-0.000390577215629406,-0.000318566557760303,-0.012857736413876,-0.00122118768971191,-0.000986720716043443,-0.000358046745875029,-0.000692927728537462,-0.00349605421377008,-0.0048663265896165,-0.0053033862987526,-0.00295077183265358,-0.00276619591461813,-0.000931336893477575,-0.00291341521121158,-0.00113496557754456,-0.00590862446567098,-0.00707404354227537,-0.000745969125619084,-0.000182862015305041,-0.00216184035884037,-0.0099799008395367,-0.0126449601835885,-0.00229554990517311,-0.000566015569539058,-0.0083765640540201,-0.00206098343476357,-0.00340046477410327,-0.00695982926578775,-1.30173297008263e-05,-0.00843817297689231,-0.0017738005351573,-0.00558817590315464,-0.000960576042217554,-0.00256160357883983,-0.00552221193143598,-0.00270121045234406,-0.00196442151449272,-0.000423499880882972,-0.00267312523091512,-0.00140226381266739,-0.000131350027136712,-0.00573113573291373,-0.00253221851159458,-0.00415793730180614,-0.00646349677432667,-0.00368416800017002,-0.00234417393830721,-0.00458567874249471,-0.000399980054825555,-0.00655404174101371,-0.00211102571174937,-0.000291711209118084,-0.00118282396409963,-0.00178926177332306,-0.00700597719245799,-7.94943756936561e-05,-0.00651552346581008,-0.00212687598235606,-0.00198760252726116,-0.00203713942857764,-0.00822319641834701,-0.00493370123420656,-0.00514899913094347,-0.00195201705569481,-0.00888109223081601,-0.000498299297670535,-0.00135078442903236,-0.00742768972825036,-0.000201904500595873,0.0001748644701971,-0.00069071884364913,-0.00262533475624416,-0.00273204031277308
"22:26166603:G:T",-0.000228452431012549,-0.00198807684257041,3.71812569728291e-05,-3.90195178852082e-05,-1.08106461826907e-05,-0.00243868466987784,-0.0025586823555388,2.82894795091693e-05,-0.00012524813204795,2.89947389155998e-05,-0.0044463900310614,-6.54608342820495e-06,-0.00248835389214896,2.07168089421117e-05,2.53775089626984e-05,-1.81071460403359e-06,-2.90683799990532e-05,-2.00918840675968e-05,-6.96030065316933e-05,-0.00171694334579087,-0.00630239006208022,0.235813523678583,-0.00799333252745704,4.58918955814624e-06,9.43347846948939e-07,-6.32408997081058e-05,9.75585167406479e-06,-3.54461511440363e-05,-0.000103318482373993,-0.00174984814075874,-2.61815351327854e-05,-5.50057481696342e-05,-0.0068971229957242,1.03923276615348e-05,-0.00355936201205598,1.70845784310814e-05,-0.00186037697118113,-4.61503013227116e-06,-6.1844420421231e-05,-1.17892195010683e-05,0.000252780700284561,-0.00288197921704558,-2.29167140259889e-05,4.58918955814624e-06,-1.81071460492177e-06,1.70845784310814e-05,2.94444340207534e-05,0.000182410463629878,-2.72985728964059e-05,-3.07399956929189e-05,-0.00365139951859383,-6.1844420421231e-05,-3.55584193201253e-08,-1.17892195010683e-05,-2.34403418959417e-05,-0.00145136584095074,-1.17892195001801e-05,-4.14821646712582e-05,-1.27803761511558e-05,-2.23089913777841e-05,3.68850979270974e-06,6.54038209964014e-05,-0.00292419125217602,6.35576771124136e-06,3.78317442848441e-05,-3.31407289033692e-05,-1.81071460492177e-06,-0.0021925608898421,-0.00332730670969017,-0.00152631743130094,-0.00212249852174473,9.4911045724011e-05,-6.06114575409933e-05,-0.00167733554722638,-0.00187332635675297,-8.52861492628421e-06,-0.00289914654201873,0,-0.0045585137665487,-0.00157699598394156,-1.90055262025979e-05,4.04054921201435e-05,-0.0033721847258974,1.78733884697024e-05,3.58553596413458e-05,-0.00168946275795712,-0.0016446969428614,-0.00126253475801175,-0.00146062248131607,1.78733884697024e-05,7.6934961068531e-06,8.92194438861793e-06,-0.0143218110251588,-0.00176352558562964,-1.58317910168293e-05,-0.0016128815583123,6.35576771124136e-06,-0.00479515432902478,-0.000285331028525349,5.50250949862274e-05,-0.000264544326438632,-0.00672215716200686,-0.0037922835408164,-0.00306842777993488,-0.00232905769708402,-4.46678024541569e-05,-0.00497541857706185,-7.20332851695815e-05,-0.00441209514307861,6.24830158288958e-05,-5.7769720767098e-05,3.84741295098578e-05,-0.00202242781935258,-0.00314735124493648,-0.00273229367151817,-5.09988544594719e-05,5.60975201766567e-05,-1.68757574883216e-05,-0.00185206224391443,-0.00047459459331467,-7.72670000328546e-05,3.65225144252079e-05,-0.000151912889197803,-2.25890759146807e-05,-9.38852498082454e-05,-0.00616131775352446,3.71812569728291e-05,-0.000112259587881525,9.14143099883802e-07,-0.000149752985142193,0.00031537455732078,-5.57424675395879e-06,-0.00282632314451092,-0.00168276826557889,-5.57424675395879e-06,-6.7546076037317e-05,-0.00300548492002939,-0.00308741137014223,-6.65415065750352e-05,-2.50790646072474e-05,-6.90210335667629e-05,1.56659372576584e-05,-0.000171061314278909,-0.00644357927574291,-0.00273781398992501,-0.00363187303407564,-0.00280668017768182,-0.000129723314635122,-0.0022720106317049,-0.00348718630462663,-2.73349665125266e-06,8.07742992314786e-06,1.78733884697024e-05,-3.54461511440363e-05,-0.00156933386593039,-6.23049671304443e-05,-0.00268540070507317,-5.06503605066655e-05,-0.00784977374811735,-4.88271440213239e-05,4.58918955814624e-06,-2.73349665125266e-06,2.75752979668198e-05,1.70845784310814e-05,8.92194438861793e-06,-0.00219609692038425,-1.48014111820416e-05,-0.00274884402583364,-0.00274636471099754,-0.00799013533783199,-0.00131629946639134,-0.00187744275298662,-0.00202102180836938,-0.00869488110231842,-0.00368584062280064,-5.77654642182068e-05,-0.00374550163908083,-2.11929402720301e-05,-2.61815351327854e-05,-0.0026142586073945,-8.52861492628421e-06,3.71812569728291e-05,-2.18562957279289e-05,3.78317442848441e-05,-1.37239669051326e-05
"22:26167114:G:A",-0.00325384190563449,-0.00649088549934884,-0.00488782186293957,-0.00195711728644543,-7.1637568499483e-07,-0.000409680618400188,0.000101909005088441,-0.00742848853754818,-0.00255358087314894,0.000184187790006618,-0.00267714611575265,-0.000974587463436372,-0.001919544822099,-0.00139601480070395,-8.70558258778686e-05,-0.00188516765068503,-0.00261456475790656,-0.00219530886526043,-0.00943548188917021,-0.00789223411388251,-0.00614606082691838,-0.00799333252745704,0.724482728255751,-8.92888637933353e-05,-0.000547198015000472,-0.00473127038269583,-7.42094136452209e-06,-0.00749352216959664,-0.00119890797741284,-0.00216122317085965,-0.00608131225170983,-0.00221421343460282,-0.0123611609763019,-0.000384867733449035,0.000588387980865246,-0.000813854170559125,-0.00475978346060346,-0.0062084728153966,-0.00501740138302775,-0.00596323237357321,0.000894054668246547,9.23537417900633e-05,-0.0005972138659045,-0.000592423479576887,-0.00450537453024946,-0.000813854170559125,-0.00218087984718185,-0.00519268922945759,0.00030428595066212,-0.000913916995806119,-0.00507636497542663,-0.00517414989487897,-0.0011915368316191,-0.00596323237357321,-0.0013137127004641,-0.0152980091815209,-0.00111528182403831,-0.000937487683141391,-0.00190991563289433,-0.00233945098082966,-0.00287610309363018,-0.00147649158103391,-0.000209316471997845,-0.00516264748186401,-0.000976759799614868,-0.000151553757916645,-0.00333525356235143,-0.00670677983156631,-0.00676299385913426,-0.00724080537855754,-0.00201067781834929,-0.0167617356022363,-0.00168056945649919,-0.00614719981069589,-0.00180415606682027,-0.00105096185962905,-0.00819570177180928,0,-0.00320919988714463,-0.00209088857047668,-0.00312400199663188,-0.00440799964461469,-0.00250848084164934,-0.00537595523897494,-0.00705202493892365,-0.0029564350111615,-0.00576680217150027,-0.000974831662433395,-0.00893684188235611,-0.00339487568746044,-0.000815121371450012,-0.00501614284979279,-0.00292955894205482,-0.00168597485437605,-0.00510293127026973,-0.00996153248989096,-0.000962914111751978,-0.012349569258149,-0.00907692893985867,-0.00194112187799655,-0.0109858293819274,-0.00350134242854327,-0.00820525178674902,-0.00391746008599902,-0.0061344023920169,0.000678834544062035,-0.00825497897669525,-0.00227933386941581,-0.00295645153601765,-0.00288138607648225,-0.00179746243469081,0.000168062378307354,-0.00250630488591108,-0.00353701472764012,-0.00756045180552345,-0.00945652236941807,0.000228090725448382,-0.00158674911176515,-0.00189220280699143,-0.0076183404368404,0.000438740285528372,-0.0131632789320957,-0.00166152494686811,-0.00699306519673515,-0.00118782903071546,-0.00717107129152517,0.000289076305411307,-0.00251254350310193,-5.69766505877922e-05,3.25089601229678e-05,0.000336800517062308,-7.04212502240509e-05,-0.0100669301156615,-0.0199209450849422,-0.00188792957765838,-0.00110892712875543,-0.00662466450760713,-0.00515271427234421,-0.00163029275002335,-0.00253274620150101,-0.000334803972048103,-0.00314511066476042,-0.012910137797947,-0.00109532165805382,-0.00273414132309435,-0.00306002622242207,-0.000950163332059883,-0.0063565790881297,-0.0054993888878192,-0.00250078720727709,-0.00286684902684975,-0.00470564841713994,0.000161098504190882,-0.010693929339114,-0.00263288052618327,-0.0209385015045878,-0.00257218292719896,-0.00171211154986262,-0.00668274906455979,-0.0222266449567337,-0.00175796684145269,-0.00465359518784769,-0.00334425915487557,-0.00193604348024401,0.000161566942998626,-0.00465865934349274,-0.00552515011470156,-0.00192269535913692,-0.00385974647985998,-0.00266008199128143,-0.0136220520101951,-0.000581833582368851,-0.00904178818568457,-0.00307472865442415,-0.0044535635116203,-0.00426516916391328,-0.00222622527971783,-0.000271563099413008,-0.00156093364860332,-0.00492590805152471,-0.00237096102286305,-0.00523911378971942,0.000349043243661917,-0.00650922392250664,-0.00106206726694857
"22:26168857:C:T",-0.00170236014643965,-0.00393364635047977,-1.58915628798439e-05,1.155852592305e-05,3.68764713076786e-06,-6.09973007836828e-06,-0.0072208898525048,-0.00313612599668023,-0.00479657719761573,-1.19135520062486e-05,-1.68388610974901e-05,2.1563180432338e-06,-0.000245633595313599,-0.00279910651757209,-1.03841247405256e-05,6.08901211229806e-07,-0.00437921230391947,6.42012174889572e-06,-0.00035796658550602,-0.000247389336296422,-0.000755802636399849,4.58918955814624e-06,-8.92888637933353e-05,0.223953230355885,-8.09443696070389e-07,-0.00310069044183958,-3.67711621596101e-06,-0.00415719511244461,2.17062117249256e-05,5.02693060511206e-06,8.24549596334379e-06,1.50272531769247e-05,-0.000252874546625925,-4.17689507070662e-06,2.03946533776644e-05,-6.72451358596504e-06,-0.000236421226448513,1.53309880968067e-06,-0.00358933941809525,3.98706449278308e-06,1.0520875227904e-05,-0.000551433444686111,7.36748835006296e-06,-1.81421606360033e-06,6.08901212117985e-07,-6.72451358596504e-06,-1.2470195835057e-05,-0.000378052079501145,8.5393471334072e-06,9.42386529700912e-06,-8.14887703359801e-06,-0.00358933941809525,-2.14063548220622e-07,3.98706449278308e-06,7.34793420775759e-06,-0.000724189272090392,3.98706449278308e-06,1.21180397192333e-05,4.2875859094238e-06,-0.00209460401786998,-1.49763637669054e-06,-3.15457205726233e-05,7.66507217697665e-07,-2.44216150324661e-06,-1.6188215155033e-05,1.01599935478092e-05,6.08901212117985e-07,-1.09854831169542e-05,-2.65129931573682e-05,1.38654276540251e-05,-1.93209069641043e-05,-0.000140132776000002,-0.00167991443532056,-0.00180964014820528,-0.00193500888166209,2.78506739803674e-06,-0.00388193625306421,0,2.0615338928387e-05,-3.86900254678579e-06,-0.00207650814058713,-5.16237810908038e-05,-0.000951708855223998,-7.03390061307374e-06,-1.52912552566775e-05,2.78506739803674e-06,-0.00530327332245939,1.23975781338714e-05,-0.00186635334253715,-7.03390061307374e-06,-0.00372674619376934,-3.37099867842028e-06,-0.000295698917241349,-2.06799791548917e-05,5.19554885158868e-06,-2.80432963872812e-06,-0.00273601920830036,-0.00101661898955463,-0.00273110796443188,-2.54530233965156e-05,-0.000284285683457952,-0.00288151691471761,-0.00163051835392114,-0.0021177920599591,1.25232123471264e-05,1.29336945171588e-05,-0.00407187417779831,-0.00545177892401227,-0.00256913368140754,-0.00034623470935724,-0.00391233894906673,-1.64825608539587e-05,-0.00125998893067703,1.5034287232929e-05,-0.00180742754134844,1.42469878996465e-05,-2.60049332361234e-05,5.50025320933401e-06,-2.54530233965156e-05,-0.00547546270675259,-0.00312625741649253,-0.00105247715569146,-0.00214976210832596,-0.00445084604401469,-0.00229041161525245,-0.00370665061526143,-1.58915628798439e-05,-0.000203323786290177,-0.00239408300155475,1.40672942521292e-05,1.29336945171588e-05,1.84400902725201e-06,-0.00266143580944878,-0.00280452637212125,-0.00206667696899299,1.73062910358013e-05,-0.00192431769668655,-1.02874108076634e-05,-0.00226603560440175,7.95220988525358e-06,-0.00160093107483394,-0.00174731413939355,-0.00316092780436783,-0.00453574645913513,-0.000970505776537678,-0.00166221636665309,1.7769579923943e-05,-0.00155089602896918,2.16060572979515e-05,-0.00347803417903236,-0.00245678923146553,-0.00165414725297186,-7.03390061307374e-06,1.07190837406179e-05,-0.0077453691652023,-9.79908266529605e-07,-5.74626754463736e-05,1.40672942521292e-05,-0.00210237929721924,1.62250678670262e-07,-1.81421606360033e-06,9.15532092804483e-07,-0.0010241602708998,-0.00142708873440256,-3.37099867842028e-06,2.01367537533415e-05,-0.00200767010293479,-6.72451358596504e-06,-4.4857823772837e-05,-0.00378293890833747,-0.00175074250500362,-0.00633185555865623,-0.000161808557923138,-0.00522157053980887,-0.00459906842307678,1.56352295235251e-05,-0.00427236394561126,6.72855700489805e-06,-0.00280751643915611,-0.00879566978766633,-0.00202303373556489,-0.00483022812831901,7.07612558770165e-06,-1.6188215155033e-05,-0.000745670037057167
"22:26168923:A:G",-0.00664587521432569,-0.00618406442599095,-0.000931114006281319,-0.00296847079507589,2.28167132947377e-05,-9.5927351836167e-05,-0.00706421519348321,-8.41519499683585e-06,-0.00437074867514742,-0.000202698128537016,-9.94639889357884e-05,6.68480544696592e-07,-0.00115710751929754,-0.00161644747892531,-0.00149410245026793,-0.00348352347517178,-0.00152990245382778,-0.000370982371284079,-0.00299983222956213,-0.00298009700316371,-0.00408246776131049,9.43347846948939e-07,-0.000547198015000472,-8.09443696070389e-07,0.377300204390481,-0.00320973468407626,-7.80499457979644e-05,-1.32318363910144e-06,-0.00327860947723924,2.5519957054243e-06,-0.00522953503797208,-6.98061056869648e-06,-0.00217139759968754,-0.000211305188168254,-0.00300859540366982,-0.000244746251323313,-0.00112120225550916,-0.00461555555555115,-9.79510404608419e-06,9.25071805824018e-07,9.77271698099358e-05,-0.000392999029448227,5.28422704704212e-07,-1.75655934295804e-05,-0.00248958521844767,-0.00352399759290556,-0.00658764825884184,-0.00118063913579292,-0.00272472495082887,-4.21322193133733e-07,-0.00233827187912716,-9.79510404608419e-06,-0.00435959248933138,9.25071805824018e-07,-0.00221020492649249,-0.0058642260937436,2.17774064141807e-05,-2.68862452301732e-06,9.38723303534061e-07,-0.00467899923240722,-0.000123665895558567,-0.00527771126888155,-0.000577913489754778,-0.00413986947770528,-1.33765956986664e-05,-8.8495124295207e-07,-0.00239256017627998,-0.00399518610811711,-0.00234648697167605,-0.000763609834496748,-0.00293348333818511,-0.00199551623316552,-1.4465056241697e-05,-0.00619063983724377,-0.000754314245104304,-0.00199268290224097,-0.00815377431160691,0,-0.00329865333739754,-0.000443820124004013,-5.59311558046005e-06,-0.001769299093211,-0.000163542335463784,-0.00291565580308095,-0.00310220239359538,-0.00210317593866804,-0.000462990194045609,-0.00559247622002967,-0.000107154386389752,-0.000513349386416451,-0.00371221654363563,-1.68749773177268e-06,-0.00359528714602053,-2.8185758746524e-05,-0.00391981322697177,-0.00498456056467766,-1.14567640885355e-06,-0.013757692359698,-0.00462169311077076,-0.00059538475124743,-0.00415592702997447,-0.00143152075540698,-2.09358240077506e-06,-0.00080843763885774,-0.00508556551784789,-0.00010403604211362,-0.00525864140084131,-0.00710735619565117,-0.0097265643484632,-6.38453252337357e-05,-0.00344987640326266,-1.37186487032537e-05,-0.003560766215295,-0.00304399161608426,-0.00543994443200368,-5.5719877618543e-06,-0.000720611159085394,-0.00238708068452009,-0.00195139631465846,-0.000832257322026742,6.45933107037422e-05,-0.00112413576528958,-0.0020293962809399,-0.00740482691452993,-0.00740074432791982,-0.00881025636108701,-0.000931114006281319,-0.00024523970143342,-0.000287007360429747,-0.00548263312968889,4.76814874437181e-05,5.94653354113461e-07,-0.00138380470563426,-0.00686588456106652,-0.00204010949585776,1.29754622095746e-05,-5.25008588239118e-05,-6.42770070768961e-06,-0.00079267994434673,-0.00139202865858223,-0.000152160408684487,-0.00155776532081564,-0.00303455086927507,-0.00226790277489286,-0.00191972016173025,-0.00279819997318143,-0.000613678900796444,2.2795172977208e-05,-0.00518406282429051,-0.00167709933515914,-0.00229741242176118,-1.50218624650478e-06,-4.27547379722171e-06,-0.00228967728377949,-0.000308853460345482,-0.0007185495521842,-2.70569384515085e-05,-0.000215981252326358,-0.000557300427245888,-0.00176446468224167,-0.00228310241991281,-0.00219634441122185,-8.1132348759283e-06,-0.00308448140621298,-1.68749773177268e-06,-0.000694402459369137,-3.94198482522867e-05,-0.00133085688709933,-0.000125514893815293,-0.000251229525642049,-0.002354581667249,-0.00776577783567411,-0.00307153485635325,-0.00558359259992569,-0.00173881118232266,-0.000412179490576037,-0.00143404325978702,-0.0022442318368876,-0.000137623340560111,-0.00712189312719858,4.51747662921775e-06,-0.000931114006281319,-1.8863491156651e-05,-1.33765956986664e-05,-0.000208809261297738
"22:26169203:G:A",-0.00148359044101376,-0.00035205392097204,-0.00196770645438971,-0.000175645748027975,-4.82917200610444e-05,6.58588272823835e-05,-0.00100417487306892,0.000126066553775672,-0.000764277225388632,0.000129854462191048,0.000162635979374492,-0.00126082830528773,-0.00327258867032354,8.54712220181852e-05,0.000110439606295643,-9.24126232160205e-06,-0.00873958882589942,-9.48834670593257e-05,-0.00367297196530902,-0.00226542887398562,-0.00461548095888986,-6.32408997081058e-05,-0.00473127038269583,-0.00310069044183958,-0.00320973468407626,0.243228301042588,4.33591226158825e-05,-0.000158181743382002,-0.000452060526301423,-0.0028339237918571,-0.00030940403535773,-0.000868066119243949,-0.00585121899448815,-0.00301068275222516,-0.00040225186141285,7.4327814076014e-05,-0.00347958752355204,-2.35383157711766e-05,0.00279916364637511,-5.32133543895696e-05,-0.00112822499160359,-0.00460794470848658,-0.000102514298146339,-0.00310069044183958,-9.24126232249023e-06,-0.00221267885299792,-0.00184346742031405,-0.00155115059898936,-0.000124220571088074,-0.00101293926197688,-0.00145511955061295,0.00274525627598532,-0.00374313913132962,-5.32133543895696e-05,-0.00116081462299356,-0.00562901909306257,-5.32133543895696e-05,-0.000886899188501822,-5.81960345540367e-05,-0.000105984992822883,1.19399481404159e-05,0.000296394121789945,-2.24049572912222e-05,-0.000759772723217367,0.000169464290851629,0.00279547291265825,-9.24126232249023e-06,-0.00081501756392921,-0.00233503513230104,-0.00385679548899276,0.00019238106301156,-0.00235894322675989,4.07516221150317e-05,-0.00356689046357861,-0.00018137342769009,-0.00124350841077625,-0.00371535000242318,0,-0.000404057172155525,-0.000256849184926189,-0.00111702115948642,-0.000125076669616142,-0.00207980350611559,-0.00246897858430373,-0.00244836968720552,-4.3460287057151e-05,-1.8596442975749e-05,-0.000931525234997288,-0.0100355610430505,7.84840603671455e-05,0.000825597139667344,3.9035576069324e-05,-0.000471227652963258,-0.00316485586985937,-0.00105963258304875,2.56425071585298e-05,2.5741278067315e-05,-0.00199889864687108,-0.00290632118787393,0.000246817253588993,-0.0046332614509863,3.54537303355329e-05,-0.000175645748027975,-0.000303967454259535,-0.00388837581279056,-0.000197237683119411,-0.00264627967253173,-0.00198151734218577,-0.0030877554047235,-0.00219420427979777,-0.000260414567745393,0.000172985428130268,-0.00188521427136301,-0.00116400571019781,-0.00210540551046279,-0.000227809025719949,0.000252983764942982,-7.8760428714908e-05,-0.00255050874367235,-3.83747049106375e-05,-0.000341541086390507,-0.00705450805058216,0.000331160535973929,-0.000183643883799434,-0.00042586501633668,0.000231694236785707,0.000165899797754498,-0.00322918266935357,-0.00316440523727479,-0.000232305872756022,-0.000197237683119411,-2.84244286445912e-05,-0.00119063582941781,-0.00037972298328981,-2.84244286445912e-05,-0.000819133675906691,-0.000598378830368063,-4.3460287057151e-05,-0.00298049202293971,0.000574860313387937,-0.000308231462702757,-0.00135864697214405,-0.00113061855247665,-0.00158883669079923,-0.000665115197402422,-0.000247115480147997,-0.000913374645345577,-0.00258555955489292,-0.00156118333817634,-0.0085697551561168,-1.39478493279555e-05,3.46587494464146e-05,-0.00246897858430373,-0.000158181743382002,-0.000135057238976444,-0.00126064175654683,-0.00234403443560094,-0.00218450118198188,-0.00499482176181454,-0.00127769152823287,1.65985026745474e-05,-1.39478493279555e-05,0.000122231990253852,7.4327814076014e-05,-0.00448372440534239,-0.00153341109957683,-6.83491174564566e-05,7.4327814076014e-05,-0.00249919275642352,-0.00149830667312667,-0.00123315932714885,-0.00196323148396704,-0.000425613924068813,-0.00308004745437884,-0.00121509968054934,-0.000254603262509256,-0.0163369772969859,-0.000100398029245774,-0.000118691134923132,-0.00198262417701134,-4.3460287057151e-05,-0.00196770645438971,-9.72549643796228e-05,0.000169464290851629,-6.98535489123131e-05
"22:26170839:C:T",-1.40063116624844e-05,-0.00012763755485512,-2.82244393945419e-05,2.71877142008492e-05,7.78077916763209e-06,-1.17277497375667e-05,-3.7039393916416e-05,-2.12700145123534e-05,8.00486787682075e-05,0.00182032951166811,-2.98234392630548e-05,4.39685253894595e-06,-0.000191236906749381,-1.60121443997241e-05,-1.92387352653256e-05,1.22150336778759e-06,1.91363267827427e-05,1.39108512930974e-05,-0.000100837277644317,-6.894098296506e-05,0.000271519540282483,9.75585167406479e-06,-7.42094136452209e-06,-3.67711621596101e-06,-7.80499457979644e-05,4.33591226158825e-05,0.000726416237974981,2.48945964180791e-05,6.88135511230925e-05,-6.55071175010846e-05,1.84103887521658e-05,3.77767673542806e-05,0.000163240914404561,-8.25068879617419e-06,6.01921739304956e-05,-1.28347736954026e-05,-0.000102001571836041,3.10528250935249e-06,4.24928204427744e-05,8.43188385601934e-06,0.000158081070588345,0.000397409096715151,1.62784162611729e-05,-3.67711621596101e-06,1.22150336778759e-06,-1.28347736954026e-05,0.000123431892172121,-0.000165213315674428,1.91370806783553e-05,2.13671921578396e-05,-1.54520496327137e-05,4.24928204427744e-05,-0.000176789460057059,8.43188385601934e-06,1.60979867560584e-05,9.11919549873019e-05,-0.0034987303905174,2.87601328707865e-05,9.09020117845216e-06,1.53604416412989e-05,-3.06732684940414e-06,-5.09658463645479e-05,1.40438574369739e-06,-4.87614766786493e-06,-2.86841319576681e-05,2.34078448224651e-05,1.22150336778759e-06,0.000234694998686003,3.63910287761726e-05,-0.000268053265887858,-3.35708008973867e-05,-7.76477337627313e-05,4.12684962141086e-05,-4.51326445354283e-05,6.46069257586035e-05,5.71814736360921e-06,2.6632993077591e-05,0,6.15795680145581e-05,-0.000194582199136484,1.31985138196455e-05,-3.22350191064302e-05,-6.26783400390352e-05,-1.33790257148547e-05,-2.72893687869313e-05,5.71814736360921e-06,-0.000141395297096558,2.95598960855514e-05,9.30386748887457e-05,-1.33790257148547e-05,-6.41864542938464e-06,-6.62502903825413e-06,0.000133382186851883,-5.05931352812183e-07,1.1109647894969e-05,6.60703577528565e-05,-4.87614766786493e-06,-0.000101791854708821,0.000133288559568179,0.00182032951166811,-0.000488397766847726,5.26885009275446e-05,2.71877142008492e-05,4.37327909574847e-05,-8.53223486929622e-05,3.12543772285068e-05,-3.07941216064478e-05,4.87703463010192e-05,8.78667181769544e-05,-4.88619542933222e-05,3.95023018464613e-05,-2.91387123239062e-05,-5.65173035651512e-05,3.74923592092458e-05,2.66982971171004e-05,3.5261682954868e-05,0.00116108593544784,1.17980485025981e-05,-4.25512697184161e-05,9.90770902031812e-06,5.24039759257633e-05,-2.77595479065695e-05,9.59826743045511e-05,2.688185736055e-05,-0.000418871296266055,-5.94736368118021e-05,0.000954607960544251,2.28098247978537e-05,-1.19543099152963e-06,3.45583963605733e-05,3.12543772285068e-05,3.7474149809924e-06,-0.000131230778652736,-0.000119666207113234,3.7474149809924e-06,4.60179489651935e-05,4.68259405890237e-05,5.71814736360921e-06,4.49287534278753e-05,1.7691803494202e-05,4.69247768046799e-05,-1.25488564446385e-05,6.58763099465887e-05,-0.000169232613661308,7.73206052429032e-06,3.77767673542806e-05,-0.000819709372565036,3.16590102711345e-05,0.000116283366921266,0.000146841793918107,1.84244523282473e-06,-6.04854356645035e-06,-1.33790257148547e-05,2.48945964180791e-05,1.91367401587428e-05,4.18061735363295e-05,-1.01856965475378e-05,-0.000450480854797597,-0.000157042677882302,3.28782245304637e-05,-3.67711621596101e-06,1.84244523282473e-06,-2.0770725516428e-05,-1.28347736954026e-05,-6.62502903825413e-06,-0.00117974196334814,-0.00065919217109478,-1.28347736954026e-05,-1.19647043828053e-06,6.8317142668306e-05,7.66303931287737e-05,-2.56919697676494e-05,0.000231044987142326,-0.000332101662849915,1.91363267827427e-05,3.99515093123526e-05,0.00018641576529177,1.46314457589725e-05,1.84103887521658e-05,-4.07389820740178e-05,5.71814736360921e-06,-2.82244393945419e-05,1.5583353294879e-05,-2.86841319576681e-05,9.15836505921419e-06
"22:26171199:A:G",-0.00493017293655562,-0.00102763409492646,9.58128819688042e-05,-9.88113202815555e-05,-2.74904783212904e-05,3.88009087393115e-05,-0.00593339387204583,7.26646350033278e-05,-0.000906150095383751,7.46600608492187e-05,9.65893024078568e-05,-1.77176378848287e-05,-0.000377146155360997,-0.00144300787607143,6.44395097708639e-05,-4.91064531704666e-06,-7.7959820862894e-05,-5.22577287362935e-05,-0.00216703927977502,-0.000518515557415888,-0.00816552154761396,-3.54461511440363e-05,-0.00749352216959664,-0.00415719511244461,-1.32318363910144e-06,-0.000158181743382002,2.48945964180791e-05,0.216356160078425,-0.000254355032681453,-4.28788619419862e-05,-6.67374695124678e-05,-0.00013859671508154,-0.00640120130942989,2.47066231615634e-05,-0.000224571946015217,4.32725699948122e-05,-0.00127778106071652,-1.25011515796913e-05,-0.000154630467311456,-3.01106211608726e-05,-0.000624049043727481,-0.00557668161918112,-5.81201300686729e-05,1.07190837406179e-05,-4.91064531704666e-06,4.32725699948122e-05,7.36696650012192e-05,-0.00371553909788336,-6.96807911948483e-05,-7.87327171130059e-05,4.90368003260855e-05,-0.000154630467311456,-1.91621067102687e-06,-3.01106211608726e-05,-6.1148175127812e-05,-0.00220535683310619,-3.01106211599844e-05,-0.000105212344503336,-3.27623212452721e-05,-5.81469676470547e-05,8.25441374896485e-06,0.0001712488259491,-9.88859704698086e-06,1.55588045096522e-05,9.76820644975618e-05,-8.34828896900675e-05,-4.91064531704666e-06,-0.000497008953289857,-0.000794800235111026,-0.000129643235387888,0.000112056063588106,-0.000348729868400177,-0.000152939182705758,0.000336917765166866,-0.00413914821977723,-2.30644980918626e-05,-0.00409759873186921,0,-0.000227184857546803,1.37072882093747e-05,-0.000836699454299428,-0.00106076099760877,-5.34838209187427e-06,4.54682296977538e-05,9.20065186935659e-05,-2.30644980918626e-05,-0.00813355214534095,-0.000108473555310518,-0.00036484947695925,4.54682296977538e-05,1.72502919051354e-05,2.2602327941712e-05,-0.0026361297410995,-6.95692746166543e-06,-4.09125606770644e-05,-0.00466780411329459,1.55588045096522e-05,-0.00291037533027172,-0.00640948933905694,0.000142920447817829,-0.000155546714541543,-0.00272738759053226,-9.88113202815555e-05,-0.000911584640769014,-0.00264287602130331,-0.000111994918006175,0.00010060476485485,-0.0134925732435045,-0.00502398923360481,-0.00336175979635378,-0.000145675574091619,9.95291171417279e-05,-0.0033810994571617,-0.000806445736744266,-0.00247957185832259,-0.000128309736631138,0.000146115648378853,-4.36963567382875e-05,0.000142920447817829,-0.000705867038689689,-0.000192244470150982,-0.00135895004960407,-0.00200685634603381,-0.000101242066442353,-0.00107922033414454,-0.000623339911492771,9.58128819688042e-05,-0.000925990622893558,-0.00109708170365241,-0.00075356695087514,-0.000111994918006175,-1.50933973657175e-05,-0.00365972326626718,1.50413348363188e-05,-1.50933973657175e-05,-0.000448302947891221,-0.00178162443590235,-0.000860442496032121,-0.000168050276352361,-6.38300164697014e-05,-0.000172844203917499,-0.00114021204150294,-0.00388944505950661,-0.0137555937794946,-3.57707778180227e-05,-0.000520434335701481,-0.000176628592438277,-0.0001204625983382,-0.000501587230528067,-0.00778252878826624,-7.41033550344383e-06,2.02826054538363e-05,4.54682296977538e-05,-8.95022092501918e-05,-0.000892488629632204,-0.00194158770787922,-0.00101922460071258,-0.00075356695087514,-0.00444848006483234,-0.00206371387666149,1.07190837406179e-05,-7.41033550344383e-06,7.06453039134303e-05,4.32725699948122e-05,2.2602327941712e-05,-0.000492727953829153,-3.81626973471327e-05,4.32725699948122e-05,-0.000998249869521572,-0.00667666001866696,-0.00153828835225145,-0.00397982357684779,-0.00126231316854941,-0.00482543193739993,-0.000908545931252114,-0.000144237641484857,-0.00329310243163139,-0.00456222025217468,-0.00103467975108895,-0.00104862366070968,-2.30644980918626e-05,9.58128819688042e-05,-5.53164421326358e-05,9.76820644975618e-05,-0.000858316963969763
"22:26174243:A:G",-0.000496196525192616,-0.000349609603169654,-0.00320609449623266,-0.00495096273546203,-7.73076998710209e-05,0.000100753811365983,-0.00310725441200255,0.00019955991787679,-0.0028548184866537,0.000206321406691856,-7.67244764583452e-05,-5.83930591364634e-05,-0.00470697808859688,-0.00319160066536117,-0.00302049860191378,-0.000374174728067445,-0.00102689244149889,-0.00015839003859508,2.86492109213832e-05,-0.00640782032424347,-0.00172349699990981,-0.000103318482373993,-0.00119890797741284,2.17062117249256e-05,-0.00327860947723924,-0.000452060526301423,6.88135511230925e-05,-0.000254355032681453,0.303252289554677,-0.00109548903344603,-0.000596321668983713,-0.000400835568969526,0.000219207728753723,-0.00109828164460257,-0.000653105909396601,0.000115763267521274,-0.0101157877640121,-0.00102386905311036,-0.000440684722594398,-8.58705812785132e-05,-0.00169004387209348,-0.00156707746964102,6.13908476765346e-06,2.17062117249256e-05,-1.61670244871459e-05,-0.00187721517941242,-0.00246180990595768,0.000231814467361424,-0.00462789021821575,-0.000231764518201949,0.00011928498044611,-0.000440684722594398,-0.00203459432636333,-8.58705812785132e-05,-0.000187572098619526,-0.00687962954819676,-0.000435588048453894,-0.000305169759529988,-9.45401745244823e-05,-0.000926868901323097,-0.00261145547104302,0.000470577368102632,-0.00102283763132593,3.78027048641982e-05,0.000268672112923696,0.000890739300438703,-0.00132068746787528,-0.00038386331180984,0.000255760319312515,-0.00108814199060525,-0.00637891080709352,4.21078424839294e-05,-0.000787507547236999,-0.00251910796796917,-0.00118573271211098,-7.60489255284824e-05,-0.00216576453781991,0,0.00299756236198601,-1.47903368485913e-06,-0.00068992898967668,-0.00507686646106187,4.27995771015155e-05,-0.00246274510410061,0.000249181020175016,-7.60489255284824e-05,-0.00113754496783436,-0.00075706972553391,-0.00223392637326825,0.000123128459710742,2.82372875899384e-05,6.12040656049473e-05,-0.00237484536439725,-5.35757338733234e-05,-0.000812296050915151,-0.00889532678254312,-0.000539932350364758,-0.00338347813029394,-0.00118671175101248,0.000389861370416078,-0.00250570202889655,-0.00287983689013149,-0.000284452076490638,-0.00741401309711165,-0.00272943689853378,0.000820089898302179,-0.00115586037454207,-0.00227256650282914,-0.00849149339722199,0.000438396986792711,-0.00425227973364706,0.000275009957278805,-0.0062174642570012,0.000313390182437701,-0.00722797147703069,0.000320948795610398,0.000401190242699023,-0.000839646186533649,-0.00540870773164759,-0.00324535245954882,-0.0115088308794196,0.000255759132476996,-0.00223814169942393,4.35003209666718e-05,-0.00194729460067933,-0.000323115870060509,0.000262255661219513,-0.000634618005133092,-0.00105436669214587,-0.000947297457828178,-0.000315245299889355,-4.97333095630381e-05,-0.00765316409138173,-0.0050768629581226,-0.00389862517780326,0.000871686861402488,-0.00183405756347899,-0.000816605242621726,-0.00107145798072228,-0.000489852086280607,-0.00117081048582079,-0.000355844421527252,-0.000664530339283154,-0.00209910626959253,-0.00790580277027608,-0.000400835568969526,-0.00127339717843888,-0.00519729800469193,-0.00298950779261897,-0.00477888249041891,-2.44016919630496e-05,5.35002771977489e-05,0.000123128459710742,-0.000367081975128691,-0.00302395288510304,-0.00141459869654437,-0.00425872866615773,-0.00912283581485518,-0.00941517431018601,-0.00132914071935897,-0.00358575632497882,-2.44016919630496e-05,0.000192714589402954,0.000115763267521274,6.12040656049473e-05,-0.00138612216548939,-0.000776311081667203,-0.00187721517941242,-0.00430186356316486,-0.00363434394202766,-0.00158582780524252,3.40268457179604e-05,-0.00943510149370308,-0.000558105756733873,0.000114919005578251,0.000272760730826604,-0.00647375898201563,-0.000167989862266182,-0.000192719400842201,-5.69333889064438e-05,-0.000607291534779897,0.000262255661219513,-0.00015560759694111,0.000268672112923696,-0.000886453085596983
