"","17:1367296:A:G","17:1370739:C:T","17:1371098:A:G","17:1371376:C:T","17:1372711:C:A","17:1375960:C:T","17:1377884:C:T","17:1378976:G:A","17:1380434:T:C","17:1381005:T:C","17:1381891:G:C","17:1382702:C:T","17:1383893:G:A","17:1385279:T:C","17:1387472:C:T","17:1387684:C:T","17:1389101:C:G","17:1390029:G:C","17:1391275:G:C","17:1391764:C:T","17:1392310:C:T","17:1394078:T:C","17:1394819:G:A","17:1395682:C:T","17:1395898:G:C"
"17:1367296:A:G",0.0670401032096049,-0.00299685184598797,-9.84260154712757e-05,-0.000117367043086958,-0.000626771875938736,-0.0017736825105521,-0.00465183474746844,-1.85179118252776e-05,-0.00506985596930232,-0.000671871299387838,-0.00195540069664801,-0.00034870354683747,-0.000177100443763401,-0.00538447525450314,-0.00446522171819108,-0.0068150165232157,-4.9312344571284e-05,-6.19082159580842e-05,-0.0043787021721422,-4.59780371517837e-05,-0.00479151245773668,-0.00574775834637364,-0.00712416758203149,-0.00720734836493886,-0.0024623182865211
"17:1370739:C:T",-0.00299685184598797,0.0276278441960982,-6.13905815960436e-06,-0.00324052956682142,-0.000636056929827156,-0.0018600315150108,0.00112106676157797,-0.00104705369470182,-0.005519322816256,0.000754333032182863,-0.00207840992034747,0.00177962051800762,-9.57208996101855e-05,-0.00395380845867432,-0.00281701187349448,-8.02724900754725e-05,4.94606534884312e-05,1.65340363027511e-05,5.24274535740332e-05,4.36077882053354e-05,-0.00375873393182591,-0.000661588976645255,-0.0035126486778756,0.000714430187048531,0.000104856028827705
"17:1371098:A:G",-9.84260154712757e-05,-6.13905815960436e-06,0.00069690933469424,-1.62182078522477e-06,-2.5251342048449e-06,3.64083634885048e-06,0.000126680057691786,-4.70117278261739e-06,2.38636343308229e-06,-1.08184751708151e-05,3.65589852702186e-06,-2.44070925159434e-06,0.000253236022595082,-0.000859256499265548,-9.57117921807082e-06,-9.5502355836885e-06,5.58912898185326e-07,0.000135908612313607,2.50142936408793e-06,5.09606246090755e-07,1.36031300712602e-06,-0.000964197229904151,2.57007337012283e-06,0.000738194670938164,1.1353983699891e-06
"17:1371376:C:T",-0.000117367043086958,-0.00324052956682142,-1.62182078522477e-06,0.045012365159641,-0.00138473761849234,-3.23665032730958e-05,6.93635358937073e-05,-0.00147202380962863,-0.000327204436858075,-0.000275410924989394,0.000114823797534136,-6.41880789666871e-05,-0.00259660895211233,-0.00467071500257843,-0.00432386825861375,-0.00311875496933833,1.53701203799983e-05,-0.00478745160035476,-0.006138570767523,1.38739405182164e-05,-0.00171468782611228,-0.00155986051054935,-0.00138381478869043,-0.00804788023530678,3.18661601141912e-05
"17:1372711:C:A",-0.000626771875938736,-0.000636056929827156,-2.5251342048449e-06,-0.00138473761849234,0.0302476499395192,0.000190303199506303,-0.00202070702084178,-0.000170310739882495,0.000104530452619933,-0.000348669867705098,-0.00220262050683306,-0.0011593457783583,-4.22897651519705e-05,-0.0027427186899267,-0.00142420651491015,-0.00439874344696545,-0.00465609668849343,-0.00198306731287978,-0.00290650140315751,2.08852489613776e-05,5.73770102096915e-05,-0.00145420399866047,-0.00352980766711131,0.00101959077120384,4.90443373202254e-05
"17:1375960:C:T",-0.0017736825105521,-0.0018600315150108,3.64083634885048e-06,-3.23665032730958e-05,0.000190303199506303,0.0204978235933115,-0.00286811947646104,-0.0016958645416727,-8.48274596538801e-05,-0.00198525569633645,-0.000466569433005937,-0.00178996498030859,7.93796572828853e-05,-0.00303222814602355,0.00020815320380585,-0.00300249202875147,-5.28336617469094e-05,-4.45703113713947e-05,-0.000934265224250552,-4.94360624010426e-05,-0.000145355754630039,0.000434981256597133,-0.00126216063284446,-0.00022399467585954,-0.000110263132699018
"17:1377884:C:T",-0.00465183474746844,0.00112106676157797,0.000126680057691786,6.93635358937073e-05,-0.00202070702084178,-0.00286811947646104,0.0652354914093189,-0.000813674742174975,-0.00452328896441534,-0.00673413796964306,-0.00205856001627946,-0.000147582986436134,9.87966309207167e-05,-0.00580312706340891,-0.00335670146174305,-0.00240944286172606,-0.000244680371956463,-0.00218454935025347,-0.00178878223701773,-0.00342938335771148,-0.00626921669859959,-0.00686999987014536,-0.004482036750725,-0.00578513033079631,-0.000210442117599463
"17:1378976:G:A",-1.85179118252776e-05,-0.00104705369470182,-4.70117278261739e-06,-0.00147202380962863,-0.000170310739882495,-0.0016958645416727,-0.000813674742174975,0.0376945758459786,-0.00228147915882193,-0.00245557010329911,-0.00159286991302299,-0.00054876451526642,-7.57341779182852e-05,-0.000889469397373333,-0.00420169794254743,-0.000715246629599875,-0.00702915574579954,-0.00388429347725427,-0.00379686706469595,3.51831575446937e-05,-0.0018282344217706,-0.00361007745858988,-0.000104175369238568,0.000422583809691179,8.34391746522556e-05
"17:1380434:T:C",-0.00506985596930232,-0.005519322816256,2.38636343308229e-06,-0.000327204436858075,0.000104530452619933,-8.48274596538801e-05,-0.00452328896441534,-0.00228147915882193,0.0576764776674508,-0.00108177744560045,-0.00120990657368303,0.000101871559401445,-0.0063186941647233,-0.00846574550726542,-0.000926444867247689,-3.25335107076441e-05,-3.04560480044458e-05,-0.00603020538113697,-0.000421759231118202,-2.81422628267691e-05,-0.000638552929295599,-0.000154242197493382,-0.00522823857855315,-0.00501214925692173,-0.00450043928301991
"17:1381005:T:C",-0.000671871299387838,0.000754333032182863,-1.08184751708151e-05,-0.000275410924989394,-0.000348669867705098,-0.00198525569633645,-0.00673413796964306,-0.00245557010329911,-0.00108177744560045,0.051434024555661,-0.00127069246428668,-0.000334393194164839,-0.00148750026674538,-0.00600934823569821,-0.0014052301260925,-0.00412298662607835,-0.00189278693992989,-0.00676118969751727,-0.000439618867338787,-0.00209720934294033,-0.000641810246176711,-0.00266624702246165,-0.0032211332928096,-0.000608237064210648,-0.00566646241926083
"17:1381891:G:C",-0.00195540069664801,-0.00207840992034747,3.65589852702186e-06,0.000114823797534136,-0.00220262050683306,-0.000466569433005937,-0.00205856001627946,-0.00159286991302299,-0.00120990657368303,-0.00127069246428668,0.0327547081863324,0.000187039109262876,-0.00158617369917913,-0.000944782998756555,-0.00150431709327226,0.000167447141111943,-5.31456467092184e-05,-0.000188660340997515,-0.00601278435992736,-4.97366761171847e-05,-0.00484603189420429,-0.00310922266209968,-0.00295314951497172,0.000966214625962802,-0.000110854348389644
"17:1382702:C:T",-0.00034870354683747,0.00177962051800762,-2.44070925159434e-06,-6.41880789666871e-05,-0.0011593457783583,-0.00178996498030859,-0.000147582986436134,-0.00054876451526642,0.000101871559401445,-0.000334393194164839,0.000187039109262876,0.019385113433489,-4.09125606770644e-05,-0.00194113582094602,-0.000307636023697988,-0.000300853770032639,2.2602327941712e-05,0.000102601840228367,0.000103385400004541,2.02826054538363e-05,-0.00341242908981076,-0.00462331249005299,-0.00464796192724659,-0.00208052906746747,4.7637745732132e-05
"17:1383893:G:A",-0.000177100443763401,-9.57208996101855e-05,0.000253236022595082,-0.00259660895211233,-4.22897651519705e-05,7.93796572828853e-05,9.87966309207167e-05,-7.57341779182852e-05,-0.0063186941647233,-0.00148750026674538,-0.00158617369917913,-4.09125606770644e-05,0.0217703430217675,-0.00156630750767661,0.000124216006304856,-0.000333806733078923,1.0156538506223e-05,-0.000496019373902534,6.08619060038507e-06,9.19074014404941e-06,-7.73629342507576e-05,-0.000224293768264161,-0.00215495924407172,-0.00267137950022178,-0.00240654081677416
"17:1385279:T:C",-0.00538447525450314,-0.00395380845867432,-0.000859256499265548,-0.00467071500257843,-0.0027427186899267,-0.00303222814602355,-0.00580312706340891,-0.000889469397373333,-0.00846574550726542,-0.00600934823569821,-0.000944782998756555,-0.00194113582094602,-0.00156630750767661,0.0864324270239445,-0.00117624390957305,-0.00688073605400197,-0.00189030269466262,-0.00293100728179629,-0.0028487325287605,-0.000514258544459523,-0.00568824538902257,-0.00239247744426496,-0.00604921310244677,-0.00199651358770758,-0.0078015779051519
"17:1387472:C:T",-0.00446522171819108,-0.00281701187349448,-9.57117921807082e-06,-0.00432386825861375,-0.00142420651491015,0.00020815320380585,-0.00335670146174305,-0.00420169794254743,-0.000926444867247689,-0.0014052301260925,-0.00150431709327226,-0.000307636023697988,0.000124216006304856,-0.00117624390957305,0.0575477482190667,-0.00755605847544238,6.90782400480927e-05,-0.00470445554548649,-0.000487510842124728,6.01334214911375e-05,-0.000292745158603225,-0.00648194358208087,-0.0068256844655239,-0.00588847519002256,0.000145695137169
"17:1387684:C:T",-0.0068150165232157,-8.02724900754725e-05,-9.5502355836885e-06,-0.00311875496933833,-0.00439874344696545,-0.00300249202875147,-0.00240944286172606,-0.000715246629599875,-3.25335107076441e-05,-0.00412298662607835,0.000167447141111943,-0.000300853770032639,-0.000333806733078923,-0.00688073605400197,-0.00755605847544238,0.0614536472296794,-0.00481764348399949,-0.000370485027627598,-0.000220479326999978,-0.00209251896672669,-0.00191448678154504,-0.00154152301974531,-0.00955551339366156,-0.00147904434234647,0.000147094326458763
"17:1389101:C:G",-4.9312344571284e-05,4.94606534884312e-05,5.58912898185326e-07,1.53701203799983e-05,-0.00465609668849343,-5.28336617469094e-05,-0.000244680371956463,-0.00702915574579954,-3.04560480044458e-05,-0.00189278693992989,-5.31456467092184e-05,2.2602327941712e-05,1.0156538506223e-05,-0.00189030269466262,6.90782400480927e-05,-0.00481764348399949,0.0300191721603191,-3.4774366747925e-05,-3.26486350745725e-05,-5.56340535684541e-06,-1.58127515748063e-05,-0.000983550779539932,-0.00130873325547309,-0.00707605111426712,-1.28510196741871e-05
"17:1390029:G:C",-6.19082159580842e-05,1.65340363027511e-05,0.000135908612313607,-0.00478745160035476,-0.00198306731287978,-4.45703113713947e-05,-0.00218454935025347,-0.00388429347725427,-0.00603020538113697,-0.00676118969751727,-0.000188660340997515,0.000102601840228367,-0.000496019373902534,-0.00293100728179629,-0.00470445554548649,-0.000370485027627598,-3.4774366747925e-05,0.0538638650337924,-0.012233391627297,-3.21658901247801e-05,-0.00160723003146401,-6.15805393708868e-05,-0.00140541708834796,-0.00450601027037534,0.000189523207627218
"17:1391275:G:C",-0.0043787021721422,5.24274535740332e-05,2.50142936408793e-06,-0.006138570767523,-0.00290650140315751,-0.000934265224250552,-0.00178878223701773,-0.00379686706469595,-0.000421759231118202,-0.000439618867338787,-0.00601278435992736,0.000103385400004541,6.08619060038507e-06,-0.0028487325287605,-0.000487510842124728,-0.000220479326999978,-3.26486350745725e-05,-0.012233391627297,0.0634003873278264,-3.01860135216714e-05,-0.00926055781555402,-0.000350211568033387,-0.00556715008591091,-0.00564574057899003,-7.03274519313624e-05
"17:1391764:C:T",-4.59780371517837e-05,4.36077882053354e-05,5.09606246090755e-07,1.38739405182164e-05,2.08852489613776e-05,-4.94360624010426e-05,-0.00342938335771148,3.51831575446937e-05,-2.81422628267691e-05,-0.00209720934294033,-4.97366761171847e-05,2.02826054538363e-05,9.19074014404941e-06,-0.000514258544459523,6.01334214911375e-05,-0.00209251896672669,-5.56340535684541e-06,-3.21658901247801e-05,-3.01860135216714e-05,0.0106044619551753,-1.45001761984176e-05,8.61680210437754e-05,-0.00226992703831996,-0.000223517560912434,-1.17731500148821e-05
"17:1392310:C:T",-0.00479151245773668,-0.00375873393182591,1.36031300712602e-06,-0.00171468782611228,5.73770102096915e-05,-0.000145355754630039,-0.00626921669859959,-0.0018282344217706,-0.000638552929295599,-0.000641810246176711,-0.00484603189420429,-0.00341242908981076,-7.73629342507576e-05,-0.00568824538902257,-0.000292745158603225,-0.00191448678154504,-1.58127515748063e-05,-0.00160723003146401,-0.00926055781555402,-1.45001761984176e-05,0.0585585487581164,-0.00358785103189341,-0.00020238691865071,-0.00110478157553162,-0.00680476026688215
"17:1394078:T:C",-0.00574775834637364,-0.000661588976645255,-0.000964197229904151,-0.00155986051054935,-0.00145420399866047,0.000434981256597133,-0.00686999987014536,-0.00361007745858988,-0.000154242197493382,-0.00266624702246165,-0.00310922266209968,-0.00462331249005299,-0.000224293768264161,-0.00239247744426496,-0.00648194358208087,-0.00154152301974531,-0.000983550779539932,-6.15805393708868e-05,-0.000350211568033387,8.61680210437754e-05,-0.00358785103189341,0.0462184399437242,-0.000372691671189251,0.00233683048521449,-0.00165958553922163
"17:1394819:G:A",-0.00712416758203149,-0.0035126486778756,2.57007337012283e-06,-0.00138381478869043,-0.00352980766711131,-0.00126216063284446,-0.004482036750725,-0.000104175369238568,-0.00522823857855315,-0.0032211332928096,-0.00295314951497172,-0.00464796192724659,-0.00215495924407172,-0.00604921310244677,-0.0068256844655239,-0.00955551339366156,-0.00130873325547309,-0.00140541708834796,-0.00556715008591091,-0.00226992703831996,-0.00020238691865071,-0.000372691671189251,0.077253370466861,-0.00326823430791912,-0.000826735186618244
"17:1395682:C:T",-0.00720734836493886,0.000714430187048531,0.000738194670938164,-0.00804788023530678,0.00101959077120384,-0.00022399467585954,-0.00578513033079631,0.000422583809691179,-0.00501214925692173,-0.000608237064210648,0.000966214625962802,-0.00208052906746747,-0.00267137950022178,-0.00199651358770758,-0.00588847519002256,-0.00147904434234647,-0.00707605111426712,-0.00450601027037534,-0.00564574057899003,-0.000223517560912434,-0.00110478157553162,0.00233683048521449,-0.00326823430791912,0.0570456751806265,-0.000418502706890145
"17:1395898:G:C",-0.0024623182865211,0.000104856028827705,1.1353983699891e-06,3.18661601141912e-05,4.90443373202254e-05,-0.000110263132699018,-0.000210442117599463,8.34391746522556e-05,-0.00450043928301991,-0.00566646241926083,-0.000110854348389644,4.7637745732132e-05,-0.00240654081677416,-0.0078015779051519,0.000145695137169,0.000147094326458763,-1.28510196741871e-05,0.000189523207627218,-7.03274519313624e-05,-1.17731500148821e-05,-0.00680476026688215,-0.00165958553922163,-0.000826735186618244,-0.000418502706890145,0.0322731421143772
