"","12:109825709:C:T","12:109827461:T:C","12:109830859:C:T","12:109833525:G:A","12:109833527:G:A","12:109835139:G:A","12:109835975:G:C","12:109836375:A:T","12:109837133:G:A","12:109839303:A:T","12:109840256:G:A","12:109842600:A:G","12:109843271:G:A","12:109843666:C:T","12:109845660:T:A","12:109846147:T:A","12:109846565:G:A","12:109848819:C:T","12:109848912:G:A","12:109849067:C:A","12:109850690:A:T","12:109852199:C:T","12:109854511:C:T","12:109855984:C:T","12:109856639:G:A","12:109861678:T:A","12:109866083:G:A","12:109866817:C:T","12:109867731:G:C","12:109869379:C:T","12:109872207:G:A","12:109872909:C:T","12:109873255:T:C","12:109874026:G:A","12:109874230:A:G","12:109878669:G:A","12:109879744:C:T","12:109881294:T:C","12:109884791:C:T","12:109885931:A:G"
"12:109825709:C:T",0.0544639087050092,3.98994054862101e-05,-8.71593149138761e-05,-0.00204989665472777,-8.01303759523364e-06,-2.93672054541005e-05,-0.000380054824389298,3.89390755106689e-06,1.24173278743811e-05,-0.00330844785034845,4.89123470348574e-06,-5.04699639929385e-05,-0.000429977583682017,4.2832958874861e-05,-0.00590110102055252,-8.01303759701e-06,-0.000100894504596383,-8.01303759523364e-06,-0.000346887926101047,3.88009087393115e-05,-0.00287236960482584,-0.000880906670518655,-0.00538052772056208,-1.22530399160325e-07,-0.00331866614269405,-9.88868708695634e-06,-0.00538052772056208,-8.14502709785003e-05,1.92814049881918e-06,1.24173278743811e-05,-0.00202199440117923,-0.0018760146915513,-0.00288590649453901,-8.01303759701e-06,-0.000828234436347941,2.7817163615218e-05,-0.00164981551116572,-0.00171304404184003,-0.00863372317625544,-0.00439930598057803
"12:109827461:T:C",3.98994054862101e-05,0.0585421520163218,-0.00298415299353483,-0.000174392167712867,-0.00197642319463665,-9.54385387048617e-05,0.000275443400697739,-0.00242947235928348,-9.89370228321462e-05,-1.8311050951958e-05,-5.56775095708062e-05,-0.00213954333517119,-0.00239918426950547,0.00200014351096112,0.000462497385600003,-0.0028129094685756,-0.000293287702505474,1.44857511257257e-05,9.08147157865358e-05,-0.00475904957204154,-0.00298696515814711,-0.00650976272989157,-0.00118991769018528,-0.00183471271115021,-0.000781778372100028,-0.00282661556131369,-0.00118991769018528,-0.00200916313140231,-2.16664278918088e-05,-9.89370228321462e-05,-0.00302948693832672,-0.00011853273463025,-0.000323009763803839,-0.00093925409602047,-0.000234855466460182,-0.000242092785794235,6.69408709432773e-05,-0.0118755980574816,-0.0053468078842025,0.00030347634992367
"12:109830859:C:T",-8.71593149138761e-05,-0.00298415299353483,0.0341970423494962,7.6517542589194e-05,-3.78794904873914e-05,-0.000131997277730278,-0.00410416142471348,-0.00109765182796817,5.37283397799015e-05,-0.00129820384525114,1.73645310495019e-05,-0.00145995369799135,-0.00393609798963634,-0.000634446001821942,9.93685103365394e-05,-3.78794904873914e-05,0.00557314862055236,-3.78794904873914e-05,-0.00019648968392616,0.000169812606995556,-3.78794904873914e-05,-0.0117296700237226,-0.000857740511694516,-1.05816446538398e-05,-3.4602705754061e-05,-4.43234340945509e-05,-0.000857740511694516,-0.0036522347952852,6.83025243564117e-06,5.37283397799015e-05,1.38137212335465e-05,2.33841507428778e-05,-0.000964146536579058,-3.78794904882795e-05,-0.00399129493656059,0.000119564080951484,-6.19007749023126e-05,0.000663438561455898,-0.00253741153277698,-0.000206382689754925
"12:109833525:G:A",-0.00204989665472777,-0.000174392167712867,7.6517542589194e-05,0.0304310488955535,7.65722661366652e-06,2.76970303447754e-05,-0.000433931169083301,-4.50388659878342e-06,-1.31943672529999e-05,-0.000119704491321038,-5.66896171161346e-06,-0.0020039974575452,-0.00272888465573651,-0.00147357699979622,6.64057095232096e-05,7.65722661277835e-06,8.6536969996942e-05,7.65722661366652e-06,-0.00161038116269552,-4.36963567382875e-05,7.65722661366652e-06,-0.003430390908429,-0.00167822123633865,-1.34639338345011e-06,-3.56864643800137e-05,9.75572628458821e-06,-0.00167822123633865,6.13187640325918e-05,-0.0074957123379189,-1.31943672529999e-05,-4.50388659878342e-06,-0.00262389722336476,-0.000733212275163098,7.65722661189017e-06,-0.0022555184548656,-3.08141857994215e-05,1.02768515510832e-05,-0.000200562854906217,-8.36103430224e-06,4.36275670203656e-05
"12:109833527:G:A",-8.01303759523364e-06,-0.00197642319463665,-3.78794904873914e-05,7.65722661366652e-06,0.0210065382953024,-1.2232381790156e-05,-0.000228000222353586,1.65363661164264e-06,-0.000425631749942923,-1.47823827223448e-05,2.07544683039629e-06,-2.12546851328099e-05,-0.000213561273962881,-0.00239200398209416,-3.1907035006995e-05,-0.00352507440789562,-4.41464817981796e-05,-0.00292766354144636,-1.93782380772944e-05,1.55588045096522e-05,-3.26722690680015e-06,-0.000373719921315185,1.92093866848708e-05,1.19144410781757e-07,-2.85644279873765e-06,-4.07845553240804e-06,1.92093866848708e-05,-0.00286685923857188,8.20164051340555e-07,-0.000425631749942923,1.65363661164264e-06,4.21865362643103e-06,8.35623766537452e-06,-0.00257856166808867,-0.000212793145386136,1.12795477162919e-05,-4.70360327398112e-06,-0.00271176022015407,-1.64279434251569e-05,-1.97378469808385e-05
"12:109835139:G:A",-2.93672054541005e-05,-9.54385387048617e-05,-0.000131997277730278,2.76970303447754e-05,-1.2232381790156e-05,0.033587191152201,0.000205309391837716,-0.00187517060059683,1.86193093325571e-05,-5.4556019315477e-05,7.1474537959304e-06,-2.48817434744808e-06,0.000239464345324958,-0.000416514010320945,-0.00047295574795303,-0.00358541163462434,-0.000152956767236034,-1.2232381790156e-05,-6.92002158633187e-05,5.80023835192733e-05,-1.2232381790156e-05,-2.94626371477591e-06,-0.00380381227220283,-7.14255032008282e-07,-1.08430990950481e-05,-1.49697469069565e-05,-0.00380381227220283,-0.00156579453832073,-0.00215045193263386,1.86193093325571e-05,5.69000038819212e-06,-0.00185301030788487,2.91603080260217e-05,-1.2232381790156e-05,0.000196928440151289,4.15619004376921e-05,-0.0113721698122546,-0.000368180531965301,-0.00170644771398543,-0.000847252559185385
"12:109835975:G:C",-0.000380054824389298,0.000275443400697739,-0.00410416142471348,-0.000433931169083301,-0.000228000222353586,0.000205309391837716,0.0748195927621516,-0.00106583166337781,-0.000235581893142545,0.00087665075139487,-0.001509156808714,-0.00291742624046298,0.000687768025033897,0.000898803274920201,-0.0116151817983132,-6.39681954766047e-05,-0.00399676357497025,-0.00301889144224265,-0.00265841969739178,-0.00295387993631202,-0.00343452893466445,0.00134485593593858,-0.0011700228018765,-0.00219264600981761,-0.00330349744627512,-0.00345170649175675,-0.0011700228018765,-0.000440325974084832,-6.98499573159594e-05,-0.000235581893142545,-0.00161861142931397,-0.00559421360989942,-0.00127862502690945,-0.00255888508872371,0.00237652600250637,-0.000267546360782411,-0.000253570855981877,-0.00889544418407784,-0.00375433376359613,-0.00661428802344233
"12:109836375:A:T",3.89390755106689e-06,-0.00242947235928348,-0.00109765182796817,-4.50388659878342e-06,1.65363661164264e-06,-0.00187517060059683,-0.00106583166337781,0.0191187603150382,-2.87469436344168e-06,6.65434630953143e-06,-0.00216580311376546,-0.00187099945294023,-0.00106934231871758,-7.38840925675888e-05,1.23268023672907e-05,1.65363661164264e-06,-0.00114565931720101,1.65363661164264e-06,8.44602409610928e-06,-9.94031986323307e-06,1.65363661164264e-06,-0.00208186686872303,-0.000180193337760315,-1.61784469376869e-07,1.44049686667813e-06,2.06899323007548e-06,-0.000180193337760315,-0.00187512130282386,-4.56918383129334e-07,-2.87469436344168e-06,-9.29751416300917e-07,-0.00190470317043356,-5.06669955324668e-06,1.65363661164264e-06,-3.01513612832593e-05,-6.86545936190441e-06,2.28643618083169e-06,-5.327296652613e-05,-3.97328779619954e-05,8.57867336545581e-06
"12:109837133:G:A",1.24173278743811e-05,-9.89370228321462e-05,5.37283397799015e-05,-1.31943672529999e-05,-0.000425631749942923,1.86193093325571e-05,-0.000235581893142545,-2.87469436344168e-06,-0.000360442621066603,2.19714727265341e-05,-3.61447029373352e-06,3.12035622345164e-05,-0.000258215963299335,-0.000146253732961732,4.61283434463056e-05,5.08393166498422e-06,6.14402493743782e-05,5.08393166676058e-06,2.90971600120926e-05,-2.74904783212904e-05,5.08393166676058e-06,-0.000167751041656672,-3.53253793488051e-05,-7.06742207867705e-07,4.38989509099486e-06,6.44794018178629e-06,-3.53253793488051e-05,-0.000215428883049817,-1.42075762887828e-06,0.00205388993281996,-2.87469436344168e-06,-7.94020304262233e-06,-1.49654051169179e-05,5.08393166498422e-06,-0.000231504227127033,-1.95545265011532e-05,6.94468747575172e-06,-0.000113995946655621,2.27703244224386e-05,2.9645908089293e-05
"12:109839303:A:T",-0.00330844785034845,-1.8311050951958e-05,-0.00129820384525114,-0.000119704491321038,-1.47823827223448e-05,-5.4556019315477e-05,0.00087665075139487,6.65434630953143e-06,2.19714727265341e-05,0.0178436472504253,8.35474226779098e-06,-0.00123934515966351,0.000653292624696267,-0.000114973002530938,-0.000139270426399385,-0.00102519384015665,-0.00113680576304365,-0.00259649474495838,-8.50222369042086e-05,6.70778566878028e-05,-0.000193277865276897,-0.00033780764853697,-0.00114660948832057,-1.21609563219494e-06,-1.31410769350637e-05,-1.8020207106062e-05,-0.00114660948832057,-0.000125218969388108,3.29806270471522e-06,2.19714727265341e-05,-0.000126695569970359,-0.00118107497392828,-0.00163861890403094,-1.47823827223448e-05,0.000392113458442811,-0.00199699346976789,-2.24951344085511e-05,-6.25088286261288e-05,-0.000632446858282343,-8.64042635617679e-05
"12:109840256:G:A",4.89123470348574e-06,-5.56775095708062e-05,1.73645310495019e-05,-5.66896171161346e-06,2.07544683039629e-06,7.1474537959304e-06,-0.001509156808714,-0.00216580311376546,-3.61447029373352e-06,8.35474226779098e-06,0.0301559123156201,1.13372478480755e-05,-0.00145368279064595,-9.30595045742777e-05,1.54953118087775e-05,2.07544683039629e-06,1.90576835228384e-05,2.07544683039629e-06,1.0615192467256e-05,-1.25011515796913e-05,2.07544683039629e-06,-0.0044380636649386,-4.06318775958425e-06,-0.00262319612275697,1.80664789262153e-06,2.59922868650619e-06,-4.06318775958425e-06,-0.00701153541972133,-5.76120484652165e-07,-3.61447029373352e-06,-1.17236798580223e-06,-0.00379623845804034,-6.39163313653768e-06,2.07544682950811e-06,-0.00096441390547497,-0.0033798417276687,-0.00213539944122321,-6.70543192802242e-05,-0.000540952971886277,1.07824854520544e-05
"12:109842600:A:G",-5.04699639929385e-05,-0.00213954333517119,-0.00145995369799135,-0.0020039974575452,-2.12546851328099e-05,-2.48817434744808e-06,-0.00291742624046298,-0.00187099945294023,3.12035622345164e-05,-0.00123934515966351,1.13372478480755e-05,0.0426097526066864,-0.00335256246188687,-0.000106764533002845,-0.000190907812751995,-2.12546851336981e-05,-0.00248637325104717,-2.12546851328099e-05,-0.00011819299632343,9.65893024069686e-05,-2.12546851328099e-05,-0.0027130720105939,-0.00369906627409744,9.59161722144941e-05,-1.9057996464511e-05,-0.00354251465331767,-0.00369906627409744,-0.00219014401219031,4.46827946642969e-06,3.12035622345164e-05,9.02496453036861e-06,-0.000842473236403407,-0.00136686886114035,-2.12546851328099e-05,-0.00115586598990935,6.91445652716283e-05,-9.61687108285147e-05,-8.19041063824244e-05,-0.00538718641369673,-0.000119953760979286
"12:109843271:G:A",-0.000429977583682017,-0.00239918426950547,-0.00393609798963634,-0.00272888465573651,-0.000213561273962881,0.000239464345324958,0.000687768025033897,-0.00106934231871758,-0.000258215963299335,0.000653292624696267,-0.00145368279064595,-0.00335256246188687,0.0810052373417594,0.00121027595351331,-0.0113585241907277,-0.000105112007337205,-0.00381516023765816,-0.00306684965240844,-0.00284347745207469,-0.00287595809953078,-0.00328089315073576,0.00162891498865392,-0.00130091875397786,-0.00232760273651689,-0.00353247072925722,-0.00341936858773639,-0.00130091875397786,-0.000659081681661622,-0.00165825879326054,-0.000258215963299335,-0.0014925050881569,-0.00650516272764756,-0.000720114286999696,-0.00256327281483948,0.00278724435700317,-0.000338308210484861,-0.000264004297110265,-0.00829114349347115,-0.00399738280993933,-0.0063959838101022
"12:109843666:C:T",4.2832958874861e-05,0.00200014351096112,-0.000634446001821942,-0.00147357699979622,-0.00239200398209416,-0.000416514010320945,0.000898803274920201,-7.38840925675888e-05,-0.000146253732961732,-0.000114973002530938,-9.30595045742777e-05,-0.000106764533002845,0.00121027595351331,0.0485795729091527,0.00071799764989855,-0.00242998314718612,9.18149651685241e-05,-1.81769216345273e-05,-0.000253836881299208,-0.00533510836741691,-0.00327267081007321,-0.00840142015144263,-0.000557993251172562,-0.00234018850924844,-0.000441379932290431,9.18555748645744e-05,-0.000557993251172562,-0.00366202545324068,-3.63910017862068e-05,-0.000146253732961732,-0.00335672436673917,-0.000401120093131979,-0.000625105291408801,-0.00141278609014694,-0.0043170609141634,-0.000358640444594549,-4.81657871080898e-05,-0.00938747870184198,-0.00127734972311355,0.000456031885490482
"12:109845660:T:A",-0.00590110102055252,0.000462497385600003,9.93685103365394e-05,6.64057095232096e-05,-3.1907035006995e-05,-0.00047295574795303,-0.0116151817983132,1.23268023672907e-05,4.61283434463056e-05,-0.000139270426399385,1.54953118087775e-05,-0.000190907812751995,-0.0113585241907277,0.00071799764989855,0.0432849387658774,-3.1907035006995e-05,4.36732521436056e-06,-3.1907035006995e-05,-0.000167452807103174,0.000146115648378853,-0.00175619988303399,-0.00580178729365421,0.000171423696559536,-7.46329595369133e-06,-2.89726971942628e-05,-3.76776652037947e-05,0.000171423696559536,-5.49698354550543e-05,6.09510787974443e-06,4.61283434463056e-05,-0.00166699302382867,-0.000894879899859369,6.39238949702303e-05,-3.1907035006995e-05,-0.000247840544436606,0.000103033062575975,-0.000723078339004424,0.000573713783565744,-0.00403329906826411,-0.000765199548291129
"12:109846147:T:A",-8.01303759701e-06,-0.0028129094685756,-3.78794904873914e-05,7.65722661277835e-06,-0.00352507440789562,-0.00358541163462434,-6.39681954766047e-05,1.65363661164264e-06,5.08393166498422e-06,-0.00102519384015665,2.07544683039629e-06,-2.12546851336981e-05,-0.000105112007337205,-0.00242998314718612,-3.1907035006995e-05,0.0280426817774728,-4.4146481799956e-05,-3.26722690680015e-06,-1.93782380781826e-05,1.5558804508764e-05,-3.26722690680015e-06,-0.000412750977971221,-0.00166970532338517,1.19144409005401e-07,-2.85644279962582e-06,-4.0784555341844e-06,-0.00166970532338517,-0.00124446623611174,8.20164050452377e-07,5.08393166498422e-06,1.65363661164264e-06,4.21865362643103e-06,-0.00126801119420605,-3.26722690768833e-06,-0.00139654266899214,1.12795477162919e-05,-0.00314337658936825,-0.00225371088150172,-0.00129291061146741,-1.97378469808385e-05
"12:109846565:G:A",-0.000100894504596383,-0.000293287702505474,0.00557314862055236,8.6536969996942e-05,-4.41464817981796e-05,-0.000152956767236034,-0.00399676357497025,-0.00114565931720101,6.14402493743782e-05,-0.00113680576304365,1.90576835228384e-05,-0.00248637325104717,-0.00381516023765816,9.18149651685241e-05,4.36732521436056e-06,-4.4146481799956e-05,0.049071495675411,-4.41464817981796e-05,-0.00022630290044745,0.000193783767666211,-4.41464817981796e-05,-0.0164103831774955,-0.000881863519496484,-1.43068689117953e-05,-4.05649025525534e-05,-5.11895670802787e-05,-0.000881863519496484,-0.00495858740784172,7.49599707106086e-06,6.14402493743782e-05,1.516047771144e-05,2.28298845250663e-05,-0.00418240022045335,-4.41464817990678e-05,-0.00773249099939255,0.000136222164707434,-7.34253835164012e-05,-0.00250533238988826,-0.00375215337141732,-0.000285296275054137
"12:109848819:C:T",-8.01303759523364e-06,1.44857511257257e-05,-3.78794904873914e-05,7.65722661366652e-06,-0.00292766354144636,-1.2232381790156e-05,-0.00301889144224265,1.65363661164264e-06,5.08393166676058e-06,-0.00259649474495838,2.07544683039629e-06,-2.12546851328099e-05,-0.00306684965240844,-1.81769216345273e-05,-3.1907035006995e-05,-3.26722690680015e-06,-4.41464817981796e-05,0.0357278812730035,-1.93782380772944e-05,1.55588045096522e-05,-0.00173188966279714,-0.00387841077486328,-0.00227907024287344,1.19144410781757e-07,-2.85644279873765e-06,-4.07845553240804e-06,-0.00227907024287344,-0.00286685923857188,8.20164051340555e-07,5.08393166676058e-06,-0.0020891916209651,4.21865362643103e-06,-0.00325142509544563,-0.00257856166808867,-0.00296889133232092,1.12795477162919e-05,-4.70360327398112e-06,4.93728216719447e-05,-8.43892266342294e-05,-1.97378469808385e-05
"12:109848912:G:A",-0.000346887926101047,9.08147157865358e-05,-0.00019648968392616,-0.00161038116269552,-1.93782380772944e-05,-6.92002158633187e-05,-0.00265841969739178,8.44602409610928e-06,2.90971600120926e-05,-8.50222369042086e-05,1.0615192467256e-05,-0.00011819299632343,-0.00284347745207469,-0.000253836881299208,-0.000167452807103174,-1.93782380781826e-05,-0.00022630290044745,-1.93782380772944e-05,0.031486880359374,-0.00545933872743287,-1.93782380772944e-05,-0.0024008464976033,-0.00305726110154492,-2.4686324211487e-06,-0.00185728623505099,-2.33766629396115e-05,-0.00305726110154492,-0.00234188512466016,4.17762305993108e-06,2.90971600120926e-05,8.44602409610928e-06,0.000341540328706813,4.36762490974019e-05,-1.93782380781826e-05,-0.00124726404282249,6.52853151565935e-05,-2.98170888886062e-05,-0.000186033671848662,-0.00367570357441949,-0.0001069785401695
"12:109849067:C:A",3.88009087393115e-05,-0.00475904957204154,0.000169812606995556,-4.36963567382875e-05,1.55588045096522e-05,5.80023835192733e-05,-0.00295387993631202,-9.94031986323307e-06,-2.74904783212904e-05,6.70778566878028e-05,-1.25011515796913e-05,9.65893024069686e-05,-0.00287595809953078,-0.00533510836741691,0.000146115648378853,1.5558804508764e-05,0.000193783767666211,1.55588045096522e-05,-0.00545933872743287,0.0344425435113402,1.55588045096522e-05,-0.00140045001334155,-0.000118631061177155,-4.53982825820987e-06,1.31536987799663e-05,2.02826054538363e-05,-0.000118631061177155,-0.00367764721186248,-4.91064531615848e-06,-2.74904783212904e-05,-9.94031986323307e-06,-0.000800823005099538,-5.19365317552811e-05,1.55588045078758e-05,-0.00631112104560927,-6.38300164697014e-05,-0.00103408439263131,-0.000379961708445897,6.30828462195865e-05,9.39211698316456e-05
"12:109850690:A:T",-0.00287236960482584,-0.00298696515814711,-3.78794904873914e-05,7.65722661366652e-06,-3.26722690680015e-06,-1.2232381790156e-05,-0.00343452893466445,1.65363661164264e-06,5.08393166676058e-06,-0.000193277865276897,2.07544683039629e-06,-2.12546851328099e-05,-0.00328089315073576,-0.00327267081007321,-0.00175619988303399,-3.26722690680015e-06,-4.41464817981796e-05,-0.00173188966279714,-1.93782380772944e-05,1.55588045096522e-05,0.0483676027171835,-0.0015092633557412,-0.00227907024287344,1.19144410781757e-07,-2.85644279873765e-06,-4.07845553240804e-06,-0.00227907024287344,-0.00631206398379458,8.20164051340555e-07,5.08393166676058e-06,-0.00175578833592382,-0.00207355133763087,-7.19102257287219e-05,-3.26722690768833e-06,-0.00204193695807131,1.12795477162919e-05,-0.00183473229790376,4.93728216719447e-05,-0.00440265816959062,-0.00422583929690834
"12:109852199:C:T",-0.000880906670518655,-0.00650976272989157,-0.0117296700237226,-0.003430390908429,-0.000373719921315185,-2.94626371477591e-06,0.00134485593593858,-0.00208186686872303,-0.000167751041656672,-0.00033780764853697,-0.0044380636649386,-0.0027130720105939,0.00162891498865392,-0.00840142015144263,-0.00580178729365421,-0.000412750977971221,-0.0164103831774955,-0.00387841077486328,-0.0024008464976033,-0.00140045001334155,-0.0015092633557412,0.105399190423805,-0.00298872970134134,-0.000310821595302269,-0.000488764079829451,9.9798252725769e-05,-0.00298872970134134,-0.00148546546727291,-0.00169353780548054,-0.000167751041656672,-0.00197771650855927,-0.00299004347814646,0.000926142775451222,-0.000809229680136525,-0.00159412801626191,-0.00168289735901617,-0.000214534785746068,-0.00610497921341047,-0.00297146682194072,-0.00804883712697801
"12:109854511:C:T",-0.00538052772056208,-0.00118991769018528,-0.000857740511694516,-0.00167822123633865,1.92093866848708e-05,-0.00380381227220283,-0.0011700228018765,-0.000180193337760315,-3.53253793488051e-05,-0.00114660948832057,-4.06318775958425e-06,-0.00369906627409744,-0.00130091875397786,-0.000557993251172562,0.000171423696559536,-0.00166970532338517,-0.000881863519496484,-0.00227907024287344,-0.00305726110154492,-0.000118631061177155,-0.00227907024287344,-0.00298872970134134,0.0520957672736349,-0.00039392906798863,-0.00216653775341857,2.52505238211853e-05,0.000715280545737329,-0.000509677634666694,-6.40619734237902e-06,-3.53253793488051e-05,-0.00195317230270398,-0.00345250637362771,-0.0022218306716919,1.92093866839826e-05,-0.00206675083785024,-0.000834473953227111,-0.00207524727090291,-0.000571567383138571,-0.00259319718304685,0.000113224293821546
"12:109855984:C:T",-1.22530399160325e-07,-0.00183471271115021,-1.05816446538398e-05,-1.34639338345011e-06,1.19144410781757e-07,-7.14255032008282e-07,-0.00219264600981761,-1.61784469376869e-07,-7.06742207867705e-07,-1.21609563219494e-06,-0.00262319612275697,9.59161722144941e-05,-0.00232760273651689,-0.00234018850924844,-7.46329595369133e-06,1.19144409005401e-07,-1.43068689117953e-05,1.19144410781757e-07,-2.4686324211487e-06,-4.53982825820987e-06,1.19144410781757e-07,-0.000310821595302269,-0.00039392906798863,0.0187906450321655,1.17158705847942e-07,-0.00134244123626903,-0.00039392906798863,-0.00035698700481035,-7.14034724680346e-08,-7.06742207867705e-07,-1.61784469376869e-07,-0.00182021822342548,-1.59400483390471e-06,1.19144409893579e-07,-0.000417434468238831,-0.00034175301020678,-0.00157079297351981,-6.03241259273801e-05,-0.000511553285621247,-2.58193004221141e-06
"12:109856639:G:A",-0.00331866614269405,-0.000781778372100028,-3.4602705754061e-05,-3.56864643800137e-05,-2.85644279873765e-06,-1.08430990950481e-05,-0.00330349744627512,1.44049686667813e-06,4.38989509099486e-06,-1.31410769350637e-05,1.80664789262153e-06,-1.9057996464511e-05,-0.00353247072925722,-0.000441379932290431,-2.89726971942628e-05,-2.85644279962582e-06,-4.05649025525534e-05,-2.85644279873765e-06,-0.00185728623505099,1.31536987799663e-05,-2.85644279873765e-06,-0.000488764079829451,-0.00216653775341857,1.17158705847942e-07,0.0279881493290981,-3.57338067225044e-06,-0.00216653775341857,-0.0034897245070189,7.15449544053115e-07,4.38989509099486e-06,1.44049686667813e-06,3.67263726364087e-06,7.19180121411256e-06,-2.85644279962582e-06,-4.98820415586465e-05,9.62629451795038e-06,-4.11307796444049e-06,-0.00362049727958436,-0.00259655718674257,-1.76767266850675e-05
"12:109861678:T:A",-9.88868708695634e-06,-0.00282661556131369,-4.43234340945509e-05,9.75572628458821e-06,-4.07845553240804e-06,-1.49697469069565e-05,-0.00345170649175675,2.06899323007548e-06,6.44794018178629e-06,-1.8020207106062e-05,2.59922868650619e-06,-0.00354251465331767,-0.00341936858773639,9.18555748645744e-05,-3.76776652037947e-05,-4.0784555341844e-06,-5.11895670802787e-05,-4.07845553240804e-06,-2.33766629396115e-05,2.02826054538363e-05,-4.07845553240804e-06,9.9798252725769e-05,2.52505238211853e-05,-0.00134244123626903,-3.57338067225044e-06,0.0264059369415079,2.52505238211853e-05,-0.00350391354927471,1.02425782966264e-06,6.44794018178629e-06,2.06899323007548e-06,5.26854100169061e-06,1.06225116507375e-05,-4.07845553329622e-06,-0.00341422329899554,1.45250897141125e-05,-0.00170926302407626,7.49303175036076e-05,-0.0033468834056416,-2.3792524552313e-05
"12:109866083:G:A",-0.00538052772056208,-0.00118991769018528,-0.000857740511694516,-0.00167822123633865,1.92093866848708e-05,-0.00380381227220283,-0.0011700228018765,-0.000180193337760315,-3.53253793488051e-05,-0.00114660948832057,-4.06318775958425e-06,-0.00369906627409744,-0.00130091875397786,-0.000557993251172562,0.000171423696559536,-0.00166970532338517,-0.000881863519496484,-0.00227907024287344,-0.00305726110154492,-0.000118631061177155,-0.00227907024287344,-0.00298872970134134,0.000715280545737329,-0.00039392906798863,-0.00216653775341857,2.52505238211853e-05,0.0520957672736349,-0.000509677634666694,-6.40619734237902e-06,-3.53253793488051e-05,-0.00195317230270398,-0.00345250637362771,-0.0022218306716919,1.92093866839826e-05,-0.00206675083785024,-0.000834473953227111,-0.00207524727090291,-0.000571567383138571,-0.00259319718304685,0.000113224293821546
"12:109866817:C:T",-8.14502709785003e-05,-0.00200916313140231,-0.0036522347952852,6.13187640325918e-05,-0.00286685923857188,-0.00156579453832073,-0.000440325974084832,-0.00187512130282386,-0.000215428883049817,-0.000125218969388108,-0.00701153541972133,-0.00219014401219031,-0.000659081681661622,-0.00366202545324068,-5.49698354550543e-05,-0.00124446623611174,-0.00495858740784172,-0.00286685923857188,-0.00234188512466016,-0.00367764721186248,-0.00631206398379458,-0.00148546546727291,-0.000509677634666694,-0.00035698700481035,-0.0034897245070189,-0.00350391354927471,-0.000509677634666694,0.082766923010738,9.03537015517486e-06,-0.000215428883049817,-0.00545643850237276,-0.00139092013323516,7.71072934711015e-05,-0.00194828667961033,-0.00316902690802223,-0.00663593248417893,-0.00112647135524391,-0.00258167209193072,-0.00325488016070308,0.000530981266677166
"12:109867731:G:C",1.92814049881918e-06,-2.16664278918088e-05,6.83025243564117e-06,-0.0074957123379189,8.20164051340555e-07,-0.00215045193263386,-6.98499573159594e-05,-4.56918383129334e-07,-1.42075762887828e-06,3.29806270471522e-06,-5.76120484652165e-07,4.46827946642969e-06,-0.00165825879326054,-3.63910017862068e-05,6.09510787974443e-06,8.20164050452377e-07,7.49599707106086e-06,8.20164051340555e-07,4.17762305993108e-06,-4.91064531615848e-06,8.20164051340555e-07,-0.00169353780548054,-6.40619734237902e-06,-7.14034724680346e-08,7.15449544053115e-07,1.02425782966264e-06,-6.40619734237902e-06,9.03537015517486e-06,0.020927692045996,-1.42075762887828e-06,-4.56918383129334e-07,-1.2420161557003e-06,-0.00267856175439452,8.20164051340555e-07,-0.00266334195508122,-3.39048759556704e-06,-0.00246381059048684,-2.62735149458848e-05,3.51029391332247e-06,4.24279011923545e-06
"12:109869379:C:T",1.24173278743811e-05,-9.89370228321462e-05,5.37283397799015e-05,-1.31943672529999e-05,-0.000425631749942923,1.86193093325571e-05,-0.000235581893142545,-2.87469436344168e-06,0.00205388993281996,2.19714727265341e-05,-3.61447029373352e-06,3.12035622345164e-05,-0.000258215963299335,-0.000146253732961732,4.61283434463056e-05,5.08393166498422e-06,6.14402493743782e-05,5.08393166676058e-06,2.90971600120926e-05,-2.74904783212904e-05,5.08393166676058e-06,-0.000167751041656672,-3.53253793488051e-05,-7.06742207867705e-07,4.38989509099486e-06,6.44794018178629e-06,-3.53253793488051e-05,-0.000215428883049817,-1.42075762887828e-06,-0.000360442621066603,-2.87469436344168e-06,-7.94020304262233e-06,-1.49654051169179e-05,5.08393166498422e-06,-0.000231504227127033,-1.95545265011532e-05,6.94468747575172e-06,-0.000113995946655621,2.27703244224386e-05,2.9645908089293e-05
"12:109872207:G:A",-0.00202199440117923,-0.00302948693832672,1.38137212335465e-05,-4.50388659878342e-06,1.65363661164264e-06,5.69000038819212e-06,-0.00161861142931397,-9.29751416300917e-07,-2.87469436344168e-06,-0.000126695569970359,-1.17236798580223e-06,9.02496453036861e-06,-0.0014925050881569,-0.00335672436673917,-0.00166699302382867,1.65363661164264e-06,1.516047771144e-05,-0.0020891916209651,8.44602409610928e-06,-9.94031986323307e-06,-0.00175578833592382,-0.00197771650855927,-0.00195317230270398,-1.61784469376869e-07,1.44049686667813e-06,2.06899323007548e-06,-0.00195317230270398,-0.00545643850237276,-4.56918383129334e-07,-2.87469436344168e-06,0.0408139576062512,-0.00244329382116693,-3.99707424314499e-05,1.65363661164264e-06,-0.000240937547543396,-6.86545936190441e-06,-0.00219041747461723,-5.327296652613e-05,-0.00353814814944098,-0.00384025222486706
"12:109872909:C:T",-0.0018760146915513,-0.00011853273463025,2.33841507428778e-05,-0.00262389722336476,4.21865362643103e-06,-0.00185301030788487,-0.00559421360989942,-0.00190470317043356,-7.94020304262233e-06,-0.00118107497392828,-0.00379623845804034,-0.000842473236403407,-0.00650516272764756,-0.000401120093131979,-0.000894879899859369,4.21865362643103e-06,2.28298845250663e-05,4.21865362643103e-06,0.000341540328706813,-0.000800823005099538,-0.00207355133763087,-0.00299004347814646,-0.00345250637362771,-0.00182021822342548,3.67263726364087e-06,5.26854100169061e-06,-0.00345250637362771,-0.00139092013323516,-1.2420161557003e-06,-7.94020304262233e-06,-0.00244329382116693,0.0579955192045043,-0.000713102296446166,4.21865362643103e-06,-0.000596848784310655,-1.99529841626855e-05,-0.00187102692378005,-0.00742552321718293,-0.00043429439282594,-0.00131603446756579
"12:109873255:T:C",-0.00288590649453901,-0.000323009763803839,-0.000964146536579058,-0.000733212275163098,8.35623766537452e-06,2.91603080260217e-05,-0.00127862502690945,-5.06669955324668e-06,-1.49654051169179e-05,-0.00163861890403094,-6.39163313653768e-06,-0.00136686886114035,-0.000720114286999696,-0.000625105291408801,6.39238949702303e-05,-0.00126801119420605,-0.00418240022045335,-0.00325142509544563,4.36762490974019e-05,-5.19365317552811e-05,-7.19102257287219e-05,0.000926142775451222,-0.0022218306716919,-1.59400483390471e-06,7.19180121411256e-06,1.06225116507375e-05,-0.0022218306716919,7.71072934711015e-05,-0.00267856175439452,-1.49654051169179e-05,-3.99707424314499e-05,-0.000713102296446166,0.0281446511141787,8.35623766448634e-06,0.00124342048456105,-0.00171421881480693,1.11289983406593e-05,-0.000527170153907797,-0.00109718015954208,4.44012145424111e-05
"12:109874026:G:A",-8.01303759701e-06,-0.00093925409602047,-3.78794904882795e-05,7.65722661189017e-06,-0.00257856166808867,-1.2232381790156e-05,-0.00255888508872371,1.65363661164264e-06,5.08393166498422e-06,-1.47823827223448e-05,2.07544682950811e-06,-2.12546851328099e-05,-0.00256327281483948,-0.00141278609014694,-3.1907035006995e-05,-3.26722690768833e-06,-4.41464817990678e-05,-0.00257856166808867,-1.93782380781826e-05,1.55588045078758e-05,-3.26722690768833e-06,-0.000809229680136525,1.92093866839826e-05,1.19144409893579e-07,-2.85644279962582e-06,-4.07845553329622e-06,1.92093866839826e-05,-0.00194828667961033,8.20164051340555e-07,5.08393166498422e-06,1.65363661164264e-06,4.21865362643103e-06,8.35623766448634e-06,0.0219622781171127,-0.00258202372813798,1.12795477154037e-05,-4.70360327398112e-06,-0.001869160148674,-0.00199673105496512,-1.97378469817266e-05
"12:109874230:A:G",-0.000828234436347941,-0.000234855466460182,-0.00399129493656059,-0.0022555184548656,-0.000212793145386136,0.000196928440151289,0.00237652600250637,-3.01513612832593e-05,-0.000231504227127033,0.000392113458442811,-0.00096441390547497,-0.00115586598990935,0.00278724435700317,-0.0043170609141634,-0.000247840544436606,-0.00139654266899214,-0.00773249099939255,-0.00296889133232092,-0.00124726404282249,-0.00631112104560927,-0.00204193695807131,-0.00159412801626191,-0.00206675083785024,-0.000417434468238831,-4.98820415586465e-05,-0.00341422329899554,-0.00206675083785024,-0.00316902690802223,-0.00266334195508122,-0.000231504227127033,-0.000240937547543396,-0.000596848784310655,0.00124342048456105,-0.00258202372813798,0.0620565419502146,-0.000286769689359367,-0.00033775307104511,-0.00931242599577686,-0.00137106330719261,-0.00248412954930366
"12:109878669:G:A",2.7817163615218e-05,-0.000242092785794235,0.000119564080951484,-3.08141857994215e-05,1.12795477162919e-05,4.15619004376921e-05,-0.000267546360782411,-6.86545936190441e-06,-1.95545265011532e-05,-0.00199699346976789,-0.0033798417276687,6.91445652716283e-05,-0.000338308210484861,-0.000358640444594549,0.000103033062575975,1.12795477162919e-05,0.000136222164707434,1.12795477162919e-05,6.52853151565935e-05,-6.38300164697014e-05,1.12795477162919e-05,-0.00168289735901617,-0.000834473953227111,-0.00034175301020678,9.62629451795038e-06,1.45250897141125e-05,-0.000834473953227111,-0.00663593248417893,-3.39048759556704e-06,-1.95545265011532e-05,-6.86545936190441e-06,-1.99529841626855e-05,-0.00171421881480693,1.12795477154037e-05,-0.000286769689359367,0.0209893695911374,-0.00144695233514547,-0.000275210708950091,-0.000892190056143605,6.65760424416462e-05
"12:109879744:C:T",-0.00164981551116572,6.69408709432773e-05,-6.19007749023126e-05,1.02768515510832e-05,-4.70360327398112e-06,-0.0113721698122546,-0.000253570855981877,2.28643618083169e-06,6.94468747575172e-06,-2.24951344085511e-05,-0.00213539944122321,-9.61687108285147e-05,-0.000264004297110265,-4.81657871080898e-05,-0.000723078339004424,-0.00314337658936825,-7.34253835164012e-05,-4.70360327398112e-06,-2.98170888886062e-05,-0.00103408439263131,-0.00183473229790376,-0.000214534785746068,-0.00207524727090291,-0.00157079297351981,-4.11307796444049e-06,-0.00170926302407626,-0.00207524727090291,-0.00112647135524391,-0.00246381059048684,6.94468747575172e-06,-0.00219041747461723,-0.00187102692378005,1.11289983406593e-05,-4.70360327398112e-06,-0.00033775307104511,-0.00144695233514547,0.0425828581927865,4.43287038969231e-05,-0.00177130969709172,-0.00111845435201019
"12:109881294:T:C",-0.00171304404184003,-0.0118755980574816,0.000663438561455898,-0.000200562854906217,-0.00271176022015407,-0.000368180531965301,-0.00889544418407784,-5.327296652613e-05,-0.000113995946655621,-6.25088286261288e-05,-6.70543192802242e-05,-8.19041063824244e-05,-0.00829114349347115,-0.00938747870184198,0.000573713783565744,-0.00225371088150172,-0.00250533238988826,4.93728216719447e-05,-0.000186033671848662,-0.000379961708445897,4.93728216719447e-05,-0.00610497921341047,-0.000571567383138571,-6.03241259273801e-05,-0.00362049727958436,7.49303175036076e-05,-0.000571567383138571,-0.00258167209193072,-2.62735149458848e-05,-0.000113995946655621,-5.327296652613e-05,-0.00742552321718293,-0.000527170153907797,-0.001869160148674,-0.00931242599577686,-0.000275210708950091,4.43287038969231e-05,0.0810754185387283,-0.000635073242007067,0.000365124728155308
"12:109884791:C:T",-0.00863372317625544,-0.0053468078842025,-0.00253741153277698,-8.36103430224e-06,-1.64279434251569e-05,-0.00170644771398543,-0.00375433376359613,-3.97328779619954e-05,2.27703244224386e-05,-0.000632446858282343,-0.000540952971886277,-0.00538718641369673,-0.00399738280993933,-0.00127734972311355,-0.00403329906826411,-0.00129291061146741,-0.00375215337141732,-8.43892266342294e-05,-0.00367570357441949,6.30828462195865e-05,-0.00440265816959062,-0.00297146682194072,-0.00259319718304685,-0.000511553285621247,-0.00259655718674257,-0.0033468834056416,-0.00259319718304685,-0.00325488016070308,3.51029391332247e-06,2.27703244224386e-05,-0.00353814814944098,-0.00043429439282594,-0.00109718015954208,-0.00199673105496512,-0.00137106330719261,-0.000892190056143605,-0.00177130969709172,-0.000635073242007067,0.0831759859034777,-0.00256471568128624
"12:109885931:A:G",-0.00439930598057803,0.00030347634992367,-0.000206382689754925,4.36275670203656e-05,-1.97378469808385e-05,-0.000847252559185385,-0.00661428802344233,8.57867336545581e-06,2.9645908089293e-05,-8.64042635617679e-05,1.07824854520544e-05,-0.000119953760979286,-0.0063959838101022,0.000456031885490482,-0.000765199548291129,-1.97378469808385e-05,-0.000285296275054137,-1.97378469808385e-05,-0.0001069785401695,9.39211698316456e-05,-0.00422583929690834,-0.00804883712697801,0.000113224293821546,-2.58193004221141e-06,-1.76767266850675e-05,-2.3792524552313e-05,0.000113224293821546,0.000530981266677166,4.24279011923545e-06,2.9645908089293e-05,-0.00384025222486706,-0.00131603446756579,4.44012145424111e-05,-1.97378469817266e-05,-0.00248412954930366,6.65760424416462e-05,-0.00111845435201019,0.000365124728155308,-0.00256471568128624,0.0413348261424007
