"","5:16661843:C:G","5:16662297:G:A","5:16662555:C:T","5:16662830:C:T","5:16663837:G:T","5:16663999:G:A","5:16664696:C:T","5:16666796:C:T","5:16670443:G:A","5:16672639:T:C","5:16673496:A:G","5:16675390:C:T","5:16676683:G:A","5:16676757:G:A","5:16676812:G:A","5:16679505:C:T","5:16679573:T:C","5:16681710:T:C","5:16682136:T:C","5:16682225:C:T","5:16684807:G:A","5:16684881:C:T","5:16688011:C:T","5:16688519:T:G","5:16688654:A:T","5:16690882:G:T","5:16692010:A:G","5:16692338:T:C","5:16692674:C:A","5:16694152:C:T","5:16696689:G:C","5:16697492:A:C","5:16697740:G:A","5:16699312:G:A","5:16700735:A:G","5:16704013:A:G","5:16704585:C:A","5:16706421:C:T","5:16706766:A:G","5:16708770:G:A","5:16710070:C:T","5:16711087:C:T","5:16716632:T:G","5:16718237:A:C","5:16718308:C:T","5:16718483:A:G","5:16723549:T:A","5:16724056:G:A","5:16724766:T:C","5:16725880:A:G","5:16726032:G:A","5:16727373:C:T","5:16727534:C:T","5:16728196:C:T","5:16728794:T:C","5:16729673:G:C","5:16731009:G:A","5:16733807:A:T","5:16735479:A:G","5:16735606:G:A","5:16737079:C:T","5:16741226:G:C","5:16742589:C:T","5:16743429:C:A","5:16743830:G:A","5:16745711:T:C","5:16748248:G:A","5:16749293:T:C","5:16754930:A:G","5:16755305:C:T","5:16756225:A:G","5:16757138:G:A","5:16757928:C:T","5:16760298:T:C","5:16760970:G:A","5:16761095:T:A","5:16761237:T:C","5:16761393:C:T","5:16765585:C:A","5:16766080:T:C","5:16766269:T:C","5:16766528:A:G","5:16767976:G:A","5:16767978:G:T","5:16769589:G:A","5:16776969:G:C","5:16778739:T:C","5:16784019:G:A","5:16787384:G:A","5:16788271:A:G","5:16789689:G:A","5:16790227:G:A","5:16793089:C:A","5:16794780:G:A","5:16794855:G:A","5:16796289:C:T","5:16798989:T:C","5:16805498:G:C","5:16807035:T:C","5:16807277:G:C","5:16807758:G:A","5:16811752:C:T","5:16812071:C:G","5:16812224:T:G","5:16812638:C:T","5:16813935:A:G","5:16816927:G:A","5:16817156:A:G","5:16821309:A:G","5:16821737:A:G","5:16821902:T:G","5:16822225:A:T","5:16823802:C:T","5:16823832:T:G","5:16824457:T:G","5:16826755:G:A","5:16827653:C:T","5:16828655:G:T","5:16829397:G:A","5:16829428:G:A","5:16829442:G:A","5:16829453:A:G","5:16829463:G:A","5:16835955:T:G","5:16836005:T:C","5:16837616:G:A","5:16838464:C:T","5:16845251:C:A","5:16845849:T:C","5:16847118:G:T","5:16851060:T:C","5:16851998:A:G","5:16853119:C:G","5:16853893:C:A","5:16854274:T:A","5:16854916:A:G","5:16854970:A:C","5:16855042:T:C","5:16855282:A:T","5:16857179:T:A","5:16861249:T:G","5:16861584:G:A","5:16862419:T:C","5:16862998:G:A","5:16864840:A:C","5:16868453:T:C","5:16869219:C:T","5:16871011:A:C","5:16871108:C:T","5:16871649:G:A","5:16874826:C:A","5:16877640:C:T","5:16880120:C:T","5:16880404:A:G","5:16881348:C:G","5:16885499:G:A","5:16886857:A:G","5:16889186:G:A","5:16891210:G:A","5:16892033:T:C","5:16893549:C:T","5:16893884:T:A","5:16895962:G:A","5:16897161:T:A","5:16899475:G:A","5:16901090:T:C","5:16902051:C:T","5:16902257:T:C","5:16902461:G:A","5:16902795:T:A","5:16906317:A:G","5:16906913:G:A","5:16906978:T:A","5:16907622:A:C","5:16911997:A:C","5:16912847:G:A","5:16913348:C:T","5:16913767:C:T","5:16918980:T:C","5:16919992:T:C","5:16921678:T:G","5:16922121:C:T","5:16922194:G:A","5:16922233:A:G","5:16924422:T:G","5:16926701:C:T","5:16927828:T:C","5:16928024:A:G","5:16928460:C:T","5:16928798:T:C","5:16929251:T:C","5:16931279:C:G","5:16931998:A:T","5:16932694:C:T"
"5:16661843:C:G",0.301809513519096,-0.00237816462438412,-0.00444324548224007,-0.000288310968680427,-0.00241539051162398,-0.00117047373219314,-0.000997821509552743,-0.00240870223831813,-0.00460607903619437,-0.000628645348792034,0,-4.58979749815569e-05,-0.000114225206946372,-3.81889680420855e-05,-0.00170367115032999,-0.00582490048595297,-1.61552709609936e-05,-0.00231029798111138,1.32189384727255e-05,-0.0018605002355736,-0.000168986407333094,-1.15462033862812e-05,2.14698683720371e-06,-0.00157514242518531,5.87336223922819e-06,-0.00212705837251015,-9.59473603279193e-06,-1.38475191491239e-06,-0.00437576058067801,-0.00231029798111138,4.69433795569074e-06,-0.00211468823979999,-0.00177415853377916,1.79800708517419e-05,-0.00438582488795625,1.29931379753145e-05,2.80861935664234e-06,-0.000100861460571089,-0.00071390360801793,-0.00076759437179863,-0.001495332234839,-4.89277771755781e-05,5.29137275329106e-06,-0.00237729333831371,-0.00179208235498329,-0.00529423752610647,-0.0031310776821849,-0.000524510650599552,1.73208388316581e-05,-0.000544884009633595,-0.00151100306746788,-9.72930384337545e-05,-0.00500014677777649,-0.00238204132271846,-0.00259872499884573,-0.000455445658343656,1.66222971920149e-05,-0.00197971720672729,2.48437617500485e-05,-3.94183346115184e-05,-1.38475191491239e-06,5.87336223922819e-06,0,-5.97073805952419e-06,-0.00274595945875777,-0.00347947899469503,-0.00293933337509777,-0.00166226330103481,-0.000206808876542119,-0.000968761816899644,-0.00120072409253025,-0.00413150421963326,-0.00129776702628437,-0.000360313921207389,-0.0110708361178884,-0.00940837000292927,-0.00495561460345506,-0.00146939325613804,6.44071958255665e-06,-0.00233932563154582,-0.000919474443292323,1.16574578861162e-05,-0.00961868021078693,-0.00231029798111138,-1.23003977199332e-05,-0.00149825703319273,-1.32297019224126e-05,-0.000380557816259675,-4.02943126118771e-05,0,-0.0009266251623119,-0.00317228821254112,-0.00144882455579243,-0.00411241270320772,1.69766251110204e-05,-0.0022883065216206,-0.00317228821254112,-5.65784559647398e-07,-0.000182917046256392,-3.74431184271273e-05,1.29931379753145e-05,0,6.44071958255665e-06,-0.00011656103846569,-0.000277760020694906,1.69766251110204e-05,-0.00118987795821113,-0.000277957328669309,-1.23683315083056e-05,-0.00197172535390866,-0.00250983850833997,-0.00317228821254112,-0.000705996944970089,-0.00741325463005893,-0.00179151170641134,-0.0027012243729363,-0.000337630989563742,-4.61453297710968e-05,-6.95001636143999e-05,-0.00111027514155815,-0.002087598190049,-3.15632947769373e-05,-0.00152062899504646,-0.00294549611895434,-0.00247409831773382,-0.0025704131170885,-0.00141040153772343,-0.00380363846656806,1.29931379753145e-05,-0.00611398561179755,4.69433795569074e-06,-0.00695754596390064,-0.00111634008133343,-0.0018605002355736,-0.00210348574531505,-0.00882986156885313,-0.000113456231409792,-2.36797028065894e-05,-2.20707661124919e-06,-0.00333149835114188,6.99384465718822e-06,-4.08492739216726e-05,-0.000733092131693702,-0.00124729978516669,1.21147031100222e-05,-0.00761676389868438,-7.24296282621495e-05,1.11877326327559e-05,-7.97220106472096e-05,-0.00321405556039434,-0.00458705291231798,-0.00206290843547929,1.3645502384918e-05,-0.001968539133129,-0.000802695943500353,-0.00210297132644399,-5.88040119691158e-05,-0.00108130006062535,-6.83948611523988e-07,6.99384465718822e-06,-0.00289197359056814,-0.00382085367364038,-0.00259547405585892,-0.00210297132644399,-0.00224160378673854,-1.88794503950263e-05,-9.05491731728603e-06,-0.00674631580558405,-0.00108130006062535,-0.000147322930304838,-0.00218437298463137,-0.00227458001787673,-0.0024558909961474,-1.12181633005193e-05,-0.00770230626939128,-0.000247690892511088,-4.62042032109977e-05,-0.000281012267284275,-0.000269716013320931,-0.000167204939867993,-0.00203249716104725,-0.000111964750698412,-0.00127057977733447,-0.000153758313461427,-2.23281031468403e-05,-3.7131749778041e-05,-0.000907119847735061,-0.00203249716104725,-0.000111964750698412,-8.80530963840442e-05,-0.000340194639504965,-0.00143008077517592,2.09785418778807e-05,-0.000258485702783418
"5:16662297:G:A",-0.00237816462438412,0.646544684366897,-0.00166463635671299,-0.00245959916253558,-0.000322771210882866,6.42082354547213e-05,-0.00609875891187528,-0.000113354751644312,-0.00232891160823456,-0.000276543713497279,0,-0.00341344676686894,-0.0114964701904432,-5.1304029851984e-05,-0.00798681868409812,-0.0031114397485883,-0.00326521040545469,-0.00484863503524391,-0.00192084648111823,-0.00433594190362552,-0.00810805835163153,-0.00570330772644656,-0.00205594254840413,-0.003532966262485,-0.0045944900424475,-0.00105546604909268,-0.0105144645234421,-0.00214140577399302,-0.00496835465271017,-0.00484863503524391,-0.000569718261697716,-0.0026700042061103,-0.0020563046941624,-0.000600773490154083,-0.003941010803727,-3.62048215230004e-05,-0.00208313674094018,-0.000521034904407358,-0.0113865269391606,-0.000318452117832102,-0.000118539199457146,-0.0030287929560382,-0.0019600326298983,-0.00725713183050658,-0.00800003691673989,-0.00164327825066568,-0.000355802527398197,-0.00299143391940015,-0.00254416680026459,-0.00204051740686451,-0.00142482751325357,-0.0006778796693232,-0.00502454382045681,-0.00647033092482907,-0.00179505802524549,-0.00187843996765569,-0.00323877974926745,-0.00149586663567192,3.42163155853115e-05,-0.00540911087320151,-1.35489793722243e-05,-0.0018602729995072,0,-0.000390319155958885,-0.000666486505236819,-0.00728918662605249,-0.00526551907366501,-0.000129625950981094,-0.00269464591883706,-0.0013728611782442,-0.0037909414858297,-0.00580732672138584,-0.00154744328197332,-0.00698571358250755,-0.00873736539874859,9.07424431932924e-05,-0.0066723663977406,-0.00703753181201261,-0.00164327825066568,-0.00413857830935171,-0.000963697340600866,-0.00209239914514647,-0.00487705813924677,-0.00257624303625281,-0.00165083171932778,-0.0139975015749378,-0.00163450491769268,-0.00526379792381215,-0.00156332502402812,0,-0.00736262954092393,-0.00641484649957302,-0.00716209047679772,-0.00859487206802445,-0.000917328530194439,-0.00220629331560662,-0.00641484649957302,-0.00890109949190787,-0.00639750999331845,-0.00202387360931233,-3.62048215230004e-05,0,0.000107441817078779,-0.00269331648633209,-0.00150008202802443,-0.000917328530194439,-0.00164130143210706,-0.00150453079380908,-0.00769786951084939,-0.00144211445495346,-0.0115220037006796,-0.00641484649957302,-0.00521987857403472,-0.00267631032334181,-0.0038473534815533,-0.0031617409432263,-0.00125182095115983,-0.0138396060526507,-0.00543577449132249,-0.00475631115280084,-0.00468744117592035,-0.00282386071767116,-0.000648651966441705,-0.00396306143027836,-0.00261667617106287,-0.00128259510752304,-0.00438285549173623,-0.00612541583936377,-0.000366877537715915,-0.00433869460042224,-0.000919759326236225,-0.0096993920910351,-0.00646187957594169,-0.00249972170207435,-0.000664378263191878,-0.00709881383687394,-0.00287303213594559,-0.00212227149600697,-0.0022091792844483,-0.00354448696192744,-0.000167165292504379,-0.00192704692885393,-0.00210311539997532,-0.00759058145636615,-0.00332067060326491,-0.0124020637843221,-0.00215820644071085,-0.00294157898308622,-0.00578156131180219,-0.00451380323739681,-0.00797417523278998,-0.000382426567341554,-0.00303964407582313,-0.00166606587753559,-0.00366734776589306,-0.000327864471964645,-0.00122278050129898,-0.00599183903668532,-1.79898450367588e-05,0.000123765289183453,-0.00565642889542151,-0.00387760264753778,-0.000378887815087658,-0.000327864471964645,-0.00349786697985177,3.32021829221318e-05,-0.00127055711347479,-0.00486966640512554,-0.000967935859265801,-0.000683106652155541,-0.00277127306012659,-0.00159938443193663,-0.0051922592001481,-0.00626055813186266,-4.687390274416e-05,0.000192121161746606,-0.0058794665007067,-0.000105388395036154,-0.0138853530397194,-0.000310078476342124,-0.000111461430975179,-0.000166228812276792,-0.00781052586388453,-0.00423702519860703,-0.0038000525708517,-0.00217135052918138,-0.00364920119242207,-0.000111461430975179,-0.000166228812276792,-0.00633581810213757,-0.000119967330019399,-0.00495664222149639,-0.000784189567997196,-0.000914869396690943
"5:16662555:C:T",-0.00444324548224007,-0.00166463635671299,0.233241342337051,-0.000293932104859174,-1.73353950314592e-05,-0.00362818580610025,-4.9501487207948e-05,6.68637627843083e-06,-0.001881160657347,-0.00223116530013812,0,-2.0568864807835e-05,-0.00241880744463341,-0.00145814542760903,-5.57424675395879e-06,9.12786068951732e-06,-7.73934799180864e-06,-1.05520028981232e-06,-1.41924713403796e-06,2.50068447016361e-06,-0.000235777342266097,-0.000110798907426712,-0.00209402440812401,-0.002805141658067,3.1348128253228e-06,1.50688048528025e-06,-0.00881079940695528,-6.97404381355682e-07,-0.0023487088149361,-1.05520028981232e-06,-0.0024904394902725,-3.74331456320931e-06,-0.00203072517973002,1.05502346174902e-05,-1.56226456891062e-05,7.26548056384502e-06,1.50688048705661e-06,-4.16142845427458e-05,-0.0038720201077771,1.86997246949261e-05,6.45951399569356e-06,-2.17694778026356e-05,-0.00197125390828123,-6.97404381355682e-07,-1.50344070046771e-05,-0.0014494812142134,-5.1635129310057e-06,-0.00148565952028612,1.00925400818852e-05,-0.00268782394097755,-0.00047477029310361,-0.00331121619880559,-0.00683615323738707,-0.00186178209062149,-5.9921786270678e-06,-0.00309276381416979,9.61867254112292e-06,-2.705802952363e-05,-0.000194495541691708,-1.78352130868475e-05,-6.97404381355682e-07,3.1348128253228e-06,0,-0.00228070856541684,1.21785659850104e-05,-0.00186489933502365,-0.00230265416081732,-0.00263356174153007,-0.00260998785695232,1.59143796869543e-05,-0.00686808371142522,-0.00206667696899299,-8.00590789902245e-05,-0.0036418729212393,-0.00365817291599768,3.1348128253228e-06,-8.87959443840458e-05,-0.0016337550246952,-0.00169570072095127,2.17523128132058e-06,-9.5004362927753e-06,6.45951399569356e-06,5.89837369968649e-06,-1.05520028981232e-06,-5.9921786270678e-06,-1.09041710407709e-05,-6.41747780782964e-06,-0.00199552877699194,-3.9288904623902e-05,0,-3.72444406719907e-05,1.85641747165732e-05,-0.00746720857721428,-0.0022219764761644,9.85767509131819e-06,-0.00102221159442006,1.85641747165732e-05,-0.00229389346005249,-0.00165217148208097,5.31710545548236e-06,7.26548056384502e-06,0,3.44374315197626e-06,-4.16142845427458e-05,1.82857924002633e-05,9.85767509131819e-06,-1.56226456891062e-05,-0.000700624461777544,-0.00206667696899299,-0.0046804084246217,-0.000144210245949239,1.85641747165732e-05,-0.00042370990617524,-0.00689254109991655,-0.000496699506677523,-2.23858243453279e-05,2.05037763079119e-05,-0.000800604104832736,-0.00188740249994268,-0.00236134546377809,-0.00143277687670995,-2.79877546685015e-05,-0.00335419937266135,-0.00175704208670613,-7.16133318787726e-05,-0.00172290573082012,-0.00217621832389447,-0.000851145283181864,7.26548056384502e-06,3.76933088919174e-06,-0.00201682270971837,-0.00758812963371014,1.32097817280297e-05,2.50068447016361e-06,4.0077175098574e-06,-0.00160082884154633,-0.00272318560468765,1.50688048705661e-06,4.58622524845964e-07,9.12786068951732e-06,3.7474149809924e-06,-0.0036531967690081,-2.32041174816899e-05,-4.80097102313337e-05,6.73282541807652e-06,-0.00436878907784255,-0.000151428111403007,-0.000229855058635486,1.23921826986617e-05,-1.04280976964688e-05,-1.78969144393193e-06,-0.00166823598048005,-0.00565777528785105,-0.00609111083299485,-0.0040299050134518,-0.00213263583179568,-0.00231781744014103,1.00925400818852e-05,-3.4571705587183e-07,-0.00023723189077085,-0.000273219018617432,-0.00070373822677805,5.89837369968649e-06,-0.00213263583179568,-3.48316950438132e-05,-9.04847668792286e-06,-0.00291863446535601,-0.00124806406862055,1.00925400818852e-05,-0.00361175374449463,-1.05520028981232e-06,-0.00243501237379995,-0.00384647449197306,-0.00036863618310079,1.38788849142202e-05,-0.00237865271872639,-0.00176574197212531,-0.000523249317054386,-0.000113181129989925,-0.000395647110683406,-0.00128608292193277,-0.00167125575675975,-2.7024629598138e-05,-0.00278328641516534,-0.00332275558649453,1.84400902725201e-06,1.32097817280297e-05,-0.00128608292193277,-0.00167125575675975,-0.00453538430945155,-0.00313836403417511,-4.75981272707315e-06,1.28081828121296e-05,-4.42567259071325e-05
"5:16662830:C:T",-0.000288310968680427,-0.00245959916253558,-0.000293932104859174,0.651629866479494,-0.00629763573421993,0.000237299574436634,7.15035156746424e-05,-0.0022503597264647,-0.00200659596149633,-0.00060397968775705,0,-0.00090181148634727,-0.00133299213841065,-5.48167516019049e-05,-0.0048424305582957,-0.00217394376319202,-0.000145032881615492,9.87580874411975e-06,7.23946248193386e-06,-0.00642059939540296,-0.0017717743298995,-0.00404675292535206,-0.0029571087295146,-0.00183441381420835,-0.00856477220955831,0.000102512926805076,-0.00902582040965516,5.84343508425178e-06,-0.00602336972661677,9.87580874411975e-06,-0.00194563855509511,-0.001969650200349,-0.00272229983434835,0.000558986319560972,-0.00392760006974857,-6.19603989591155e-05,-0.00224407576661889,-0.00457512767981605,-0.00428909127200905,0.00069527353567711,-0.000374678112557092,-0.00325259239928766,-0.000177918164998125,5.84343508425178e-06,-0.000675704002591537,-0.00155901410736003,2.42569653723379e-05,-0.00182662136682854,-0.00251229706617551,-0.00443179008637973,-0.00155491550327369,-0.000305279784039936,-0.0116302420614254,-0.000506243365024694,5.17271073219305e-05,-0.00475110718784055,-0.0022497649719968,-0.0040159108722948,0.000897176174158076,-0.0155638775217,-0.00209168460053988,-0.00362900072599626,0,-0.00360490933459978,-0.0025778502041085,-0.00960665839990549,-0.000630898335005625,-0.000468566857794173,-0.00402200681269349,-0.000951517325447959,-0.0121766695110024,-0.0110036361843715,-0.00152224939006107,-0.00415253599788645,-0.0108167091919102,4.3875730154852e-05,-0.00253521812628899,-0.00366676242847719,-2.51595676523664e-05,-0.00297233399784247,-0.00244123916461536,-0.000297127122092178,-0.00186774084842245,-0.00659037075953783,-0.0112716425645276,-0.00628199489668546,-0.000793864354826646,-0.00149441434273845,-0.000322382664219578,0,-0.00311288794807885,-0.00508357972319207,-0.0154013166531333,-0.00526804720617902,-0.00582918440120217,-0.00698194611564418,-0.00508357972319207,-0.000681364598095868,-0.0118196294705224,-0.00702322095542485,0.000277770320089132,0,-0.00518286405264234,-0.00367425038449465,-0.00420825299102567,-0.00582918440120217,-0.0025664322884813,-0.00674765624109908,-0.000663197243023994,-0.00129251332475855,-0.00670071960890972,-0.00508357972319207,-0.00617959487230291,-0.00520248001718615,-0.000657250746793014,-0.00252689530732209,-0.00511165684426373,-0.00480728261209729,-0.0118684082275631,-0.00297699186595768,-0.00569681073863615,-0.00532885801079042,-0.00709909742010373,-0.00972296909996428,-0.00240702387298741,-0.000791906350867233,-0.0052519786935239,-0.00548857330433838,0.000571833244805475,-0.00470065444610146,-0.00147072213225208,-0.0111675367601825,-0.00148597036721831,-0.000487097202451103,-0.000617353371551665,-0.00562079959990092,-0.00218151469723349,-0.0050904276108712,-0.000447716630750161,-0.000380903037175528,0.000297871584100662,-0.00194867452401537,-0.00222022550416368,-0.00736476999467328,-0.00278348980975629,-0.000799592012279859,-0.00448258575326088,-0.00320474552521421,-0.00168757400298514,-0.00192374011635277,-0.0163201598174014,-0.000373996658944442,-0.00206602469971617,-0.00263234374029198,-0.00476001848101593,-0.00861753700826551,-0.0017002062727034,-0.00128387008245667,1.83179490953478e-06,0.000297871584100662,-0.00162090041253915,-0.00281349466336067,-0.000631733726239148,-0.00861753700826551,-0.00227805728773944,-0.000375863514760155,-0.0048520793887965,-0.00357440821446842,-0.00294132341019449,-0.0038811134943586,-0.00340670352253714,-0.00686486843261092,-0.00575242438684764,-0.00530701090705588,2.78894421223974e-05,-0.000569769439938916,-0.00347350058386864,-0.0040513699117608,-0.00687957375465098,-0.00282731154448745,-0.00365952950111703,-0.002232571986581,-0.00080751957773062,-0.00299726285662327,-0.00339699321574516,-0.00558043383251938,-0.0032192949818528,-0.00365952950111703,-0.002232571986581,-0.0027286814666172,-0.00388089642546552,-0.00143133362174108,-0.00613718154720733,-0.0067373487205149
"5:16663837:G:T",-0.00241539051162398,-0.000322771210882866,-1.73353950314592e-05,-0.00629763573421993,0.293230746785675,-0.000148224323952562,-0.00425529469785335,4.6017549655275e-05,-0.00327994799311071,-0.000573323493291866,0,-0.000139944762600486,-0.00917926506541633,-0.00156624088800861,-4.06351553179363e-05,-0.00186557068043758,-5.71352227822786e-05,-8.47689631555681e-06,-1.13861160739859e-05,1.72557393112172e-05,-0.00957089466189398,-0.000180909059077194,6.16963400013049e-06,4.52786972555685e-05,2.25575903254338e-05,9.00365814526793e-06,-0.000624756226728085,-0.00287511086851211,2.5660502455338e-05,-8.47689631555681e-06,1.72557393112172e-05,-0.00390233581565713,-0.00553808048021054,-0.000359006743618551,-0.000108402744523062,5.48221263292348e-05,-0.00791575685000634,-0.00103618288310159,-0.0127966007131906,-0.00442903087109503,4.77167308492454e-05,-0.00328721386476882,1.99260527953271e-05,-5.61006010180165e-06,-0.000115289881335912,2.51511655697811e-05,-3.74805984773019e-05,-0.00223603726355659,7.70640789040655e-05,-0.00481552149638897,0.000126535122051408,-0.00266650811031521,-0.000708784037131593,-0.00201077298247299,-4.38368010593493e-05,-0.00269284325627073,-0.0026676354083941,-0.000180909059077194,0.000132494723441567,-0.000124089063285204,-0.00172244741809191,2.25575903254338e-05,0,-0.00365361636839978,-0.00234612218031671,-0.00296676537966789,-0.00160026886202491,-0.00223756059802227,-0.00217396233641587,-0.00357796990420489,-0.00030296606950575,-0.00227289217970394,-0.000930448026246644,-0.00627853505210352,-0.00079274581125377,-0.00208544313728876,-0.000842282392046201,-0.00800348641059045,2.51511655697811e-05,-0.0022497050870669,-0.000642340033857991,4.77167308492454e-05,-6.98976617519165e-05,-0.00186582379848677,-0.00145493511151962,-7.74462173653845e-05,-0.00329237128518667,-1.17589007109231e-05,-0.000382141933697788,0,-0.00150998362760646,-0.000506552313902731,-0.00311170503421065,-0.00368425274285666,7.48833782111546e-05,-0.000749782232339236,-0.000506552313902731,-3.67097710380904e-05,-0.005777021583385,-3.05334174823813e-05,0.00185523226352036,0,2.51511655697811e-05,-0.00152181958158248,-0.000360106887381306,7.48833782111546e-05,-0.00402708812392216,-0.000605853365470033,-2.50790108839993e-05,-0.00175936983772118,-0.00199765897823223,-0.000506552313902731,-0.00412329669267297,-0.00180307382130973,-0.00169469167278891,0.000229866016450586,-0.00140482298424782,-0.00124392712955723,-0.000918445087098263,5.9287661908769e-06,-0.00165978315091353,-0.000138319335284187,8.31323594470135e-05,-0.00139261361484611,-0.00289992127746386,8.89979003861896e-05,-0.00128395302960405,0.000463909999236733,5.48221263292348e-05,-0.00220599090474316,1.72557393112172e-05,-0.00145970628560743,0.000103379548935578,1.72557393112172e-05,-1.13861160739859e-05,-0.0122432533141912,-0.00186557068043758,9.00365814615611e-06,-2.35573573990067e-05,0.000297737900928574,2.77075700534368e-05,-0.00239902175665829,-0.000107374262332094,-0.00332142503170552,5.011949098499e-05,-0.00494154097434008,-0.000992746308969394,-0.00218184774279973,9.53432220400785e-05,-0.00257157832369792,-1.43386350917041e-05,-0.000360479550738368,-0.00247855688592935,-0.00993319968819151,-0.000168080755358346,-4.38368010593493e-05,-0.000538510392740221,-0.000776666607601229,-2.784716796711e-06,2.77075700534368e-05,-0.0019362184431877,-0.000150424116296843,-0.00223756059802227,-4.38368010593493e-05,-0.000726443727055326,-6.37175336759555e-05,-0.00171100932399249,-0.000358620880061,-0.000776666607601229,-0.000250915688222442,-0.000437452286075946,-0.000484698689500185,-7.92915102127978e-05,-0.00634968490477394,0.000106156381399991,-0.00409097674888148,-0.00188299779126533,-0.000936052274334465,-0.00586223312409651,-0.00322110342754822,-5.57930407376617e-05,-0.000194633495064878,-0.00428844403615347,-0.00402236857483462,-0.00161952066496784,-0.000854016654749934,-0.0011961651372161,-5.57930407376617e-05,-0.000194633495064878,-0.00358298260572187,-0.000584141128507021,-3.43721335429592e-05,-0.00290333608759941,0.000350058036305612
"5:16663999:G:A",-0.00117047373219314,6.42082354547213e-05,-0.00362818580610025,0.000237299574436634,-0.000148224323952562,0.196060902131571,-0.0003680579608627,5.58783482400571e-05,-0.00106347946097962,0.000192007928965232,0,-0.000165369944530092,-0.00418018671693599,-0.00205215862957608,-4.96988460998438e-05,-0.00174635774460707,-6.97913381042525e-05,-1.06837027837869e-05,-1.43331826381043e-05,-0.0015717492745928,-0.00229946686929416,-0.000211343584025414,6.82009087871194e-06,5.62183040102582e-05,2.77901167908823e-05,-0.00356989822535869,-0.00028530141033567,-7.07888418460811e-06,-0.00135470794268056,-1.06837027837869e-05,2.09732521723183e-05,-3.72160724584347e-05,-8.87220039551551e-05,0.000103146620741512,-0.000422482546256653,6.88250829199433e-05,1.04253531363341e-05,-0.000307081179705904,-0.00603466585846668,-0.00161496759627244,5.94281785497586e-05,-0.000434381236879666,2.44026631897043e-05,-7.07888418460811e-06,-0.00111072475629825,3.11363763598749e-05,-4.58287991929041e-05,-3.38387295872877e-06,9.73450110954843e-05,-0.000696168599712443,-0.000363186042028119,-0.00572071043130062,-0.00023036447025504,7.2646977627322e-05,-5.36171468663582e-05,5.94281785497586e-05,9.13997691842638e-05,-0.000211343584025414,0.000171597119623002,-0.00075999185956821,-7.07888418460811e-06,2.77901167908823e-05,0,-0.00360378668220918,-0.00177886119272941,-0.000578993213114387,-0.00368593854385768,-0.00168605909376129,0.000112121719721969,0.000164117687074139,-0.00124715774770934,1.39854090619451e-05,-0.000524500237013115,-0.000317542795271741,0.000326587477085916,2.77901167908823e-05,0.000421889725507718,0.000117988055708729,3.11363763598749e-05,1.75011014125204e-05,-8.10305529697075e-05,5.94281785497586e-05,5.29684376076034e-05,-1.06837027837869e-05,-5.36171468663582e-05,-9.34578031523969e-05,-0.000956346383629736,-0.00261719203540789,-0.00210887910102286,0,-0.00309844037833074,0.000198877613260429,0.000371564935718993,-0.000306230992252132,9.43906748096524e-05,-0.00012496581321475,0.000198877613260429,-0.0036133435533543,-0.00341043433403332,4.63457092605424e-05,6.88250829199433e-05,0,3.11363763598749e-05,-0.000429912660649734,0.000194172987275643,9.43906748096524e-05,-0.000129386941643439,-0.00346231069170866,-0.00335097802101547,-0.00277575825675491,-0.00314590224358113,0.000198877613260429,4.59386547477791e-05,-0.00394508206372901,-0.00581584590424633,-0.000179672457292668,0.000224919296583082,-0.000207173388761639,-0.000117577236540711,0.000112121719721969,-0.00102118006500618,-0.000532790300955988,-8.39608701497241e-05,0.000109132024355141,0.000378431001776036,0.000112121719721969,-0.00679393365741188,-0.00546840309468966,6.88250829199433e-05,-0.00130416570848269,2.09732521723183e-05,-0.00380917368694167,0.000132026587905898,-0.0015717492745928,-1.43331826381043e-05,-0.00167619796095941,-0.00174635774460707,1.04253531363341e-05,-0.00125158604054398,8.53055057730145e-05,3.44421869211686e-05,-0.000648453536992832,-0.00105261659083933,-0.00380863291794054,6.25987932254546e-05,-0.000388151926101976,0.000232139724492875,-0.00154474540436311,0.000120866109825535,-8.9263729778466e-05,-1.80281564778895e-05,0.000210328589622222,-0.00691170378699368,-0.00481930538478981,-0.000206884074684943,-0.00127982821617501,-0.00312018407322423,9.73450110954843e-05,-3.51791426389525e-06,3.44421869211686e-05,-0.00795489938202731,-0.000816111808788822,5.29684376076034e-05,-0.00127982821617501,-0.00039662671527374,-7.69895588472735e-05,-0.000899917903100622,-0.000793513065071139,9.73450110954843e-05,-0.00091859754160506,-1.06837027837869e-05,-0.005931427985435,-0.0010227079966052,-0.00293273686818374,0.000134162465752929,-0.00130495942530207,-0.00547220282603966,-0.00237589304119989,-0.00376284439343522,-0.002208341797588,-0.000903227684015739,-0.000919505456086434,-0.00423370553318936,-0.00441922905509617,-0.00126781748017901,1.39854090619451e-05,0.000132026587905898,-0.000903227684015739,-0.000919505456086434,-0.00457381355230524,-0.00113506797658314,-4.20061229453594e-05,0.000126515393347404,-0.000808207298426566
"5:16664696:C:T",-0.000997821509552743,-0.00609875891187528,-4.9501487207948e-05,7.15035156746424e-05,-0.00425529469785335,-0.0003680579608627,0.426104533939127,-0.00183732772662193,-0.00171302830849207,-0.00166779068180478,0,-0.000345223313134468,-0.0011686232169934,1.61283770871989e-06,-0.00319986768902236,0.000160236188968987,-0.000170894999580007,-2.41811396044511e-05,-0.0025733045578713,3.7391834717404e-05,-0.00528981420698393,-0.00125044531741647,-0.00396976559163953,0.000106120546630173,5.27047553307014e-05,1.35162262902e-05,-0.00355954375417289,-1.5997941022583e-05,-0.00401479627623758,-2.41811396044511e-05,3.7391834717404e-05,-0.00267762909772085,-5.76631122513049e-05,0.000199340919420088,-0.00413371320152223,0.00013401355049325,-9.68161026904113e-07,-0.000662056593832894,-0.000565658133052427,-0.000726289921495926,0.00011325360440928,-0.0163442425685449,4.51069043432284e-05,-0.00282789205397194,-0.0018426182772231,6.01879786792381e-05,-9.4587374579902e-05,-0.00053749401035752,-0.0037631811045209,-0.00635302635593371,-0.000793736642757281,0.000291924802198196,-0.000352155128954479,-0.00258534187019333,-0.00301214722302223,0.00011325360440928,-0.00678337249428296,-0.00125044531741647,0.000326522078845315,-0.00153444325838059,-1.5997941022583e-05,5.27047553307014e-05,0,-0.00591688438687044,-0.00123039644329115,-0.00299092463762829,-0.00122070236175453,-0.00188692331040929,-0.00168437600647398,-0.000994098816358147,-0.00267481587540219,-0.00192124822393325,-0.00131397352653373,-0.0022917677476797,-0.00448490050097528,5.27047553307014e-05,-0.00490634184188732,-0.000152657409394408,6.01879786792381e-05,7.5983371949917e-07,-0.000166089147766613,-0.00170565175986948,-0.000466152576795054,-0.000613652387213115,-0.00152306812042013,-0.00134367964655002,-9.54377070740975e-05,-0.000663763944061202,-0.000206087719293535,0,-0.00307166525260616,-0.000628548638569093,-0.00982912407062075,3.42231554997241e-05,-0.000213494099728706,-0.00483088980407942,-0.000628548638569093,-0.006493626646499,-0.00837228960389336,-0.00328679604780646,0.00013401355049325,0,-0.00179568649778172,-0.00113720870595913,-0.00108101331577082,-0.000213494099728706,-0.00109832843152624,-0.00623720893576074,-0.00686929156211136,-0.00372416595209035,-0.00108685071913595,-0.000628548638569093,-0.00038827358635185,-0.00884047353164696,-0.0033993687705669,-0.00389591669659506,-0.000598487211629362,-0.00355858961623978,-0.00357984419214308,-0.0055556261210663,-0.00643615840589806,-0.00023891356305672,-0.00310023513265945,-0.00607067887964519,-0.00582125447002557,-0.00215749884592409,-0.0112018562681437,-0.00386259817353185,0.00013401355049325,-0.00207672520695645,3.7391834717404e-05,-0.00580401941221931,-0.000987875573431829,-0.00214028735055027,-0.00418604517341858,-0.00828798239398054,-0.00144032426477914,-0.00473838845529961,-0.00228561419646933,-0.00577304934830902,6.75590907812662e-05,1.37564557878278e-05,-0.00134667057196314,-0.00352197122398623,0.000120278543796815,-0.0044833737483807,-0.00145533356502359,-0.00206305817445784,-0.00234421509136862,-0.00750251259604351,-0.0054940204900138,-0.000617391542104606,-0.00713905239188062,-0.00154004190280022,-0.00157550786460536,-0.00128585761568267,-0.00217607025150013,-0.00362585258157821,-7.93846708102564e-06,6.75590907812662e-05,-0.00744510900587425,-0.00687525028462233,-0.000466152576795054,-0.00128585761568267,0.000107332614940781,-0.000156699532496418,-0.00116658446470996,-0.00797416048227761,-0.000651034103711368,-0.00147643795458752,-2.38286317086889e-05,-0.00602841511149244,-0.000144597926958312,-0.000322554611887682,-0.000203222909683554,-0.000339691493831396,-0.00843146553368523,-0.00211615557092326,-0.000692154119810162,-0.00444815542680654,-0.000330233094896215,-0.00106083173810667,-0.0067358908041113,-0.0011363756083318,-0.000801391414323227,-0.000501669941969318,-0.000987875573431829,-0.000330233094896215,-0.00106083173810667,-0.00113688297139047,-0.00252149342801022,-0.00582096770555562,-0.00014712372529857,-0.00213756518927433
"5:16666796:C:T",-0.00240870223831813,-0.000113354751644312,6.68637627843083e-06,-0.0022503597264647,4.6017549655275e-05,5.58783482400571e-05,-0.00183732772662193,0.357772203251572,-0.00699971120709453,-0.00822773334054805,0,-0.00440234965336472,-0.000461950900051633,-0.00248044461059127,1.73958694000831e-05,-3.7469042585947e-05,2.31454682717569e-05,-0.00209533175661569,-0.00236359247117157,-0.00618949431927263,-0.00599971474483585,-0.0010631463763211,-0.00134100789736724,-0.00315777358006208,-1.15737492620838e-05,-0.00228856502451436,-0.000694689541996585,2.19661055034237e-06,-4.77305185206944e-05,-0.00209533175661569,-9.38233674752098e-06,1.13075177887723e-05,1.39106834406988e-06,-4.36508011150138e-05,-0.00314911712576915,-2.82768824151347e-05,-6.03021405432003e-06,-0.00348911963183252,-0.00171033256290842,-9.32023855639841e-05,-0.00132291496429104,-0.00133521441461593,-1.04823280571154e-05,2.19661055034237e-06,-0.00730764662919547,-1.26566734772737e-05,-0.00186363624877206,-0.000507866498232978,-0.00093140053692764,-0.00641983811620861,-0.000357738358776061,3.57128967198861e-06,-0.000553267642173338,-3.31605989352113e-05,-0.00198532171288246,-0.00301473195160629,-3.95662184917711e-05,6.55248424159538e-05,-7.69393534154617e-05,-0.00873094951687126,2.19661055034237e-06,-1.15737492620838e-05,0,-0.00670576322250582,-0.00133310422869748,-0.00996384135025874,-0.00233537384667404,-2.29600810728314e-05,-5.08944700090552e-05,-7.42037839502885e-05,-0.0039271731187509,-7.15635229209255e-06,-0.00064143558283547,-0.00164713485157453,-0.00597298865514961,-1.15737492620838e-05,-0.000121233719407421,-5.29542353753243e-05,-1.26566734772737e-05,-0.00169283521207486,2.84157728209777e-05,-2.51134752264903e-05,-0.00148642786292186,3.30690648464582e-06,1.85308382816274e-05,-0.0081530494446973,1.96732624111462e-05,-0.00165112853514771,-0.00389179492283809,0,-0.0039154093853071,-9.23494757145704e-05,-0.00185595972378749,-0.00231733695854075,-0.00249754301971539,4.20069314719385e-05,-9.23494757145704e-05,-0.00192028697716218,-0.00415166352340446,-0.00546910514614396,-2.82768824151347e-05,0,-1.26566734772737e-05,-0.00331491140393236,-0.00101461068613595,-0.00249754301971539,-0.00138151143436804,-0.00173343514361424,-0.00171189090748225,-0.00176043564650019,-0.00761264870307699,-9.23494757145704e-05,-0.00128946613543324,-0.00202271455209146,-0.00261191650908987,5.70023946178111e-05,-0.00360891167299204,-0.00814384308353233,-0.00270063579579904,-0.00151928497552944,-0.00418248288900447,-0.000717593025528984,-0.00276725108835407,-0.00145236176716868,-0.00709332245071614,-0.0127949449583777,-0.00851102637327061,-0.000100286957927409,-2.82768824151347e-05,-0.000220599263467847,-7.86510383283812e-05,-0.00247256082190894,-0.0132671352801008,-7.86510383283812e-05,-0.00466918872266664,-0.000317340338340522,-0.00298372133454095,-6.03021405432003e-06,-0.00238865360967111,-3.7469042585947e-05,-1.37311739321078e-05,-0.000265713304563597,-0.00233593202055449,-0.00446408373698226,-2.61767445506322e-05,-0.0059603798755421,-0.000256450822658572,-0.00167150631794755,-0.00270912566066706,-0.00295111910375834,-0.00196903995202202,-0.000405863734147971,-0.000740975762577811,-0.00173195714996366,-2.8714787625006e-05,-0.00200873260523959,-0.00156425351233214,-4.16265225302581e-05,1.09432598005554e-06,-1.37311739321078e-05,-0.00165541475701936,-8.54000437886526e-05,-2.29600810728314e-05,-0.00200873260523959,-0.00118634721353317,2.72946154895592e-05,-0.00107685234585997,-0.000303855958107668,-4.16265225302581e-05,-0.00222609503821936,-0.00244615312117791,-0.00266539275717248,-7.16297739282723e-05,-0.000299244457946379,-0.00193084689534206,-0.00388381079082389,-0.000596269804936878,-2.98015091724224e-05,-3.20556871260536e-05,-3.11791861573596e-06,-8.20667124035168e-05,-0.00219390517545204,-0.00418236583197729,-0.00373032541121976,-0.0048366899996477,-7.15635229209255e-06,-5.79375182212516e-05,-8.20667124035168e-05,-0.00219390517545204,-0.00330563151627716,-0.00564110824072106,1.5148201314652e-05,-5.59720806680986e-05,-0.00319956944850031
"5:16670443:G:A",-0.00460607903619437,-0.00232891160823456,-0.001881160657347,-0.00200659596149633,-0.00327994799311071,-0.00106347946097962,-0.00171302830849207,-0.00699971120709453,0.286189172255751,-4.39228437292272e-05,0,-9.0396563104278e-05,-0.000257791382246353,7.64855438868395e-05,-2.57502005602817e-05,4.340894144228e-05,-0.00168612450308814,-5.18219925638164e-06,-6.96277753942098e-06,-0.000323982011435575,-0.00734303660129143,-0.000822840951104631,-0.0021297604254924,2.89631670700174e-05,1.44866428293255e-05,9.00138423087782e-06,-0.000255212469676191,-3.42859396251782e-06,1.60932872246278e-05,-5.18219925638164e-06,-0.00175897056759844,-0.00231767602048549,-0.00187250158044705,5.11888390377635e-05,-0.00414231373083229,-0.000236747329830145,-0.00211626377458884,-0.0041528469663854,-0.0131133689482383,-0.000893598333709278,3.04211886010819e-05,-0.00573498391634164,1.28947299895543e-05,-3.42859396251782e-06,-0.000619417988396265,-0.00172136634032416,-2.37995681313663e-05,2.01413409142148e-05,4.8673242549313e-05,-0.000605432145094564,-0.00391025117482169,-8.35464497326299e-05,9.31934424341918e-05,-0.00027266070127574,-2.77311201504205e-05,3.04211886010819e-05,4.60810752143104e-05,-0.00446503469572423,8.25668737158836e-05,-7.95534059117031e-05,-3.42859396251782e-06,-0.00191652512575846,0,-0.00233159008128592,-0.00556994940973787,-0.00150925463793516,-0.000695604278458717,-6.51583832986802e-05,-0.00137101292790298,-0.00379447934662203,-0.00141694005719151,7.97038915489878e-06,-0.00113725749292204,-0.00980713818339707,-0.00398776040162474,1.44866428293255e-05,0.000193830866072275,-0.00574249169193219,1.60546742016265e-05,9.63714965429574e-06,-4.29475481524833e-05,-0.00166978086176783,2.74827296644631e-05,-5.18219925638164e-06,-0.0028059886053331,-0.00314650333558308,-2.97430010949284e-05,-0.000577691629742638,-0.000177273694977664,0,-0.00157046799069782,-0.00098936873614619,-0.0036711069002302,-0.00106529568131108,4.73869379895575e-05,-6.72674309640797e-05,-0.00098936873614619,-1.24723976284713e-05,-0.00490320644997677,-0.00487084242126645,3.4665525989297e-05,0,1.60546742016265e-05,-0.000652816828677238,-0.00123498081843731,4.73869379895575e-05,-6.96476753123676e-05,-0.00142280035500519,7.97038915489878e-06,-0.000311317585569348,-0.000795839267352605,-0.00098936873614619,-0.00195449617776688,-0.00493643299220103,-0.00209713115136001,-9.83627863941905e-05,-0.000141464064394192,-0.000577375682675907,-0.00370759992948066,-0.00181603279729625,-0.00252436346994545,-0.00338110309102735,-0.00421647698724481,-0.00175163393401156,-0.000792390564771317,-0.00494189356609098,-0.00202631023754396,-0.00541045995431411,3.4665525989297e-05,-0.00432432919575287,1.12784118542208e-05,-0.00208718448950984,-0.00432034199104336,1.12784118542208e-05,-6.96277753942098e-06,-0.00823438535140442,4.340894144228e-05,-0.00211626377458884,-0.00196070973723739,4.340894144228e-05,1.75993334954327e-05,-0.000234578799288343,-1.12887418444174e-05,-0.00341667164540649,-0.00150570491700996,-0.00306281426048294,-0.00609869430338161,-1.38698881482213e-05,-0.00809217309570798,-0.00290727586869277,-8.77092492945764e-06,-0.000157764223104984,-0.00218127541113944,-0.00203893193658233,7.88774380522383e-05,0.000167065407352673,-0.0018936030456187,-0.00124360947018509,-0.00415085336704113,1.75993334954327e-05,-0.000311660538184988,-0.00347564554363133,2.74827296644631e-05,0.000167065407352673,-0.000149035883058701,-4.08536105327428e-05,-4.73935560334482e-05,-0.00200439181667544,4.8673242549313e-05,-0.00282152351804932,-5.18219925638164e-06,-0.00406121047578933,-0.00122013633293427,-0.00220326454240283,-0.000657519160444764,-0.00049355297817133,-0.00349905416627072,-4.44182246894798e-05,-0.00242627739504542,4.2851356425011e-05,-6.46990319363994e-05,-0.00274347648491435,0.000108392935365131,-0.000383187582571498,-0.000279866436265763,7.97038915489878e-06,6.49242611574508e-05,-6.46990319363994e-05,-0.00274347648491435,-0.00036655418746312,-0.000538177647157134,-2.18785674670485e-05,6.26215056760415e-05,-0.000612712829282103
"5:16672639:T:C",-0.000628645348792034,-0.000276543713497279,-0.00223116530013812,-0.00060397968775705,-0.000573323493291866,0.000192007928965232,-0.00166779068180478,-0.00822773334054805,-4.39228437292272e-05,0.394160573911925,0,-0.00173178289042397,-0.00391176897790091,-0.0029291944979466,-0.000100292459389806,-8.64194968119847e-05,-3.89568996315148e-05,-0.00210033422310563,-7.20146920318854e-06,-0.00236097947127334,-0.00246170001180923,-0.000939563797016874,-0.00444681351994003,2.80035478006369e-05,-0.00438995140334253,-0.0046811663816726,-0.00228548153243002,-3.52184148155743e-06,-2.47225495284553e-05,-0.00210033422310563,1.12753361802831e-05,-0.00429272736467023,-0.0015700093451434,0.00153915031886065,-0.00114414655041806,3.30781285482473e-05,-0.00183882562754878,-0.00744404973529988,-0.00219828726524529,-0.00782580771386243,-0.00152330320896521,-0.00561850039204259,1.28513544854769e-05,-3.52184148155743e-06,-0.000579188749436632,1.58996396537603e-05,-0.0033015376146377,-0.00399771949184213,-0.00111395460888719,-0.00016956990629069,-0.000403906436782897,-0.00629888878771379,-0.00696953602442685,-7.05116693300312e-05,-2.96053298667331e-05,2.93158215409761e-05,-0.00210100403569236,-0.000905973366412738,-0.000420047017025915,-0.000225583374004579,3.20795265462692e-06,1.43924733322365e-05,0,-0.000289723148897636,-0.00914285446562157,-0.00380148788627643,-0.000603097879682934,-0.00551661295616235,-0.00522832246214477,-0.00410276071170745,-0.00215914049930976,-0.000504916569776803,-0.000827192253078479,-0.00135679623813445,-0.00279914760106204,-0.00178570470747186,9.58531368411286e-06,-0.00466554201942593,-0.00159049302185377,-0.00194681944403374,-0.00244201738560523,-0.00295118918292925,-0.0101242264588128,-0.00210033422310563,-0.00167709577227271,-5.44066278092004e-05,-0.00617300278434563,-0.0033547210349143,4.33189636481757e-05,0,-0.00181373505507931,-0.000223105543128099,-0.0020543828422892,-3.70221096144263e-05,4.40187119323809e-05,-0.00090002956216928,-0.000223105543128099,-0.00184079183789621,-0.00205383233959289,-0.00142085856832175,-0.0001060592282629,0,-0.00159049302185377,-0.00473286239406612,-0.000324062911615464,4.40187119323809e-05,-0.00846812480621573,-0.00490610605422148,-0.00259440368795794,-0.00108426362223568,-0.000860588692356501,-0.000223105543128099,-0.00554665434706703,-0.00677312874568337,-0.0003598418029922,-0.00233284457815053,-0.00215764934498264,-0.0101339747829394,-0.00279931893328467,-0.00119278880541351,-0.00647149565925531,-0.000939719492270896,-0.004362975908903,-0.000473359591905975,-0.00149677908986767,-0.00533434751674733,-0.00452379491435018,-0.00371681852353856,-0.000295628713372409,-0.000446619385948921,-0.00424856482333702,-0.00412077320890658,-0.00213110115034798,-0.00236097947127334,-7.20146920318854e-06,-0.00566141150484789,-0.00101925267200986,-0.00198591405627901,-0.00154307818490995,-8.48771804768944e-05,-0.000130628179318748,-0.00133002359160539,7.35436642012033e-05,-0.00449675249272019,-0.000475391581358231,-0.000650657797859555,-0.000932770940819339,-0.000427253764485158,5.43184584964607e-05,4.37641841797287e-05,-0.00494811917639915,-0.000919867156833121,-0.000189298020244699,-0.00693490567019506,-0.00547314438708835,-2.15995894903287e-05,-0.000130249326733889,-0.000785181415128733,-0.00402099350731167,1.73737692570342e-05,-0.000502102506656499,-0.000378552535952092,-6.25582342186348e-05,-2.15995894903287e-05,-0.0031895218017528,-4.43481248399991e-05,-0.00123905793438972,-0.00246614419122171,-0.000785181415128733,0.00013900877724371,-0.00237615921758572,-0.00490675554249176,-0.0074846808582647,-0.00358733629882035,-0.00469112719232267,-0.000849366975160137,-0.00305206686877568,-0.000494926450503641,-0.00518617740562188,-0.000403906917897601,-0.00123365683455567,9.62743817476408e-05,-0.000234874867649282,-0.00315496559372086,-0.00164287720206069,-0.00184925471510855,-0.000930515545056743,-0.00123365683455567,9.62743817476408e-05,-0.00410046612975412,-0.00522739400233307,-2.31124770442293e-05,-0.0003392661831505,-0.00106788061990937
"5:16673496:A:G",0,0,0,0,0,0,0,0,0,0,0,0,0,0,0,0,0,0,0,0,0,0,0,0,0,0,0,0,0,0,0,0,0,0,0,0,0,0,0,0,0,0,0,0,0,0,0,0,0,0,0,0,0,0,0,0,0,0,0,0,0,0,0,0,0,0,0,0,0,0,0,0,0,0,0,0,0,0,0,0,0,0,0,0,0,0,0,0,0,0,0,0,0,0,0,0,0,0,0,0,0,0,0,0,0,0,0,0,0,0,0,0,0,0,0,0,0,0,0,0,0,0,0,0,0,0,0,0,0,0,0,0,0,0,0,0,0,0,0,0,0,0,0,0,0,0,0,0,0,0,0,0,0,0,0,0,0,0,0,0,0,0,0,0,0,0,0,0,0,0,0,0,0,0,0,0,0,0,0,0,0,0,0,0,0,0,0,0,0,0,0,0,0,0
"5:16675390:C:T",-4.58979749815569e-05,-0.00341344676686894,-2.0568864807835e-05,-0.00090181148634727,-0.000139944762600486,-0.000165369944530092,-0.000345223313134468,-0.00440234965336472,-9.0396563104278e-05,-0.00173178289042397,0,0.181232684028154,-0.001037632970875,0.000149736060433447,-4.71501843319899e-05,8.15683564505676e-05,-6.60734699717835e-05,-1.00991792013616e-05,-1.3546913389284e-05,2.00732584065832e-05,-0.00329887422911845,-0.000199720064998132,6.68390729607893e-06,5.37095389434583e-05,2.65280829996328e-05,1.00930513120545e-05,-0.00526029306179598,-6.69260055286003e-06,9.8677800853153e-05,-1.00991792013616e-05,2.00732584065832e-05,-3.51408712155887e-05,-8.35964052621208e-05,9.85360688767756e-05,-0.000122548852984572,6.56761595578814e-05,-0.00101323484294902,0.00327655208649524,-0.0033568506762327,0.000192849008533891,5.67551347145923e-05,-0.000165369944530092,2.33200585215698e-05,-6.69260055286003e-06,-0.000992441284319412,2.96980217022735e-05,-4.35017984647956e-05,-0.00104279136861773,9.30153837357395e-05,-0.00474445310241833,0.00309190561610606,0.000270206590289312,0.00015781350979438,6.95465298692355e-05,-5.08428916639048e-05,5.67551347145923e-05,8.73611142875319e-05,-0.000199720064998132,0.000164295617856247,-0.000428209638260846,-6.69260055286003e-06,2.65280829996328e-05,0,-2.77646739732518e-05,0.000112904422009841,0.000221857318639884,-0.00489049769370542,5.06268899354012e-05,-0.00128854533244205,0.000157147270489766,-0.000210260404100104,-0.0010635791491298,-0.00814165411379353,-0.00564360311766876,-0.00113323548249777,2.65280829996328e-05,-0.010374278951585,0.000112904422009841,2.96980217022735e-05,1.67869760447914e-05,-7.68870400706945e-05,-0.00181800111920172,5.06268899354012e-05,-1.00991792013616e-05,-5.08428916639048e-05,-8.85743192213795e-05,-5.45807320504466e-05,-0.00100455900467367,0.000443042716466557,0,0.000204012080563309,0.000190637464942078,-0.00566117131906552,0.000102454397142182,9.02052480338256e-05,-0.000118400890651849,0.000190637464942078,-2.41446365460973e-05,0.000213837637287106,-0.00437554800890716,6.56761595578814e-05,0,2.96980217022735e-05,-8.88413452191372e-05,0.000186133514468168,9.02052480338256e-05,-0.000122548852984572,-0.00168940895487957,1.34604875663413e-05,-0.00209377857268311,-0.00245687081092694,0.000190637464942078,-0.00338499772847811,-0.00150859446418039,-0.000956541515567899,-0.000202266768053683,0.000215844565962797,-0.00464635311204287,-0.00227052185260135,0.000107320306466541,-0.00423370118905897,-0.000117584570770823,-2.13362788290539e-05,-0.0012282706085438,-0.0031993699155759,-0.00128854533244205,-0.00598843663114312,-0.000616422388094229,6.56761595578814e-05,2.79515857339874e-05,2.00732584065832e-05,-0.00171168813532763,0.000126280401453904,2.00732584065832e-05,-1.3546913389284e-05,-0.00116075208328237,8.15683564505676e-05,1.00930513138309e-05,-0.000927109588934272,8.15683564505676e-05,3.28305482382163e-05,-0.000144072182523658,-0.00131983694684124,-0.00102915938526227,5.9764340765156e-05,-0.000918993974122984,-0.0006560139611409,5.37095389443465e-05,-0.00158564748153633,-8.46312582094555e-05,-1.70365526503957e-05,-0.000228805696580459,-0.00112116382989669,-0.00230962339958918,-0.000783261424341042,-5.08428916630166e-05,0.000406245558602691,9.30153837357395e-05,-3.32644566825024e-06,3.28305482382163e-05,-0.0080403883819109,-0.00405041011218721,-0.00117618244539486,-5.08428916630166e-05,-0.000249051573922188,0.00116034241788476,-0.00574333837121799,0.000354438804464507,9.30153837357395e-05,-0.0011970204516194,-1.00991792013616e-05,-0.000953442861138853,-0.00519165260778021,0.000193198255695748,-0.00104641243862424,-0.000973134772649153,-0.0020201667174824,0.00015795481466796,0.000238259386218687,-0.00156655766777636,-0.000539837818856803,-0.000586324285028361,-0.000534674092842913,-0.00452290052989746,-0.0009375953954045,1.34604875663413e-05,0.000126280401453904,-0.000539837818856803,-0.000586324285028361,-0.00473112059813374,-0.0131276478696023,-3.98969417823025e-05,-0.00141185279672751,-0.00646024980660354
"5:16676683:G:A",-0.000114225206946372,-0.0114964701904432,-0.00241880744463341,-0.00133299213841065,-0.00917926506541633,-0.00418018671693599,-0.0011686232169934,-0.000461950900051633,-0.000257791382246353,-0.00391176897790091,0,-0.001037632970875,0.580096163732617,-0.00276000607742954,-0.0016009943986619,-0.00154042065085225,-0.00129030146290798,-0.00548217701928611,-0.00191579922398599,-0.000531770129889253,0.00020635572383032,-0.00297587030813773,-0.00567489202622795,-0.00022384783864382,-0.00279372745254491,-0.00384614577801923,-0.00657716732969371,1.56303570086891e-07,-0.00148945505769671,-0.00548217701928611,1.60314902331038e-05,-0.00378962309507092,-0.00148072194209892,0.000258397972690005,-0.00129069099095602,-0.000378646892878365,-0.000633025599539039,-0.00105221282853218,-0.00158889791942673,-0.000489927178104921,-8.36581955852012e-05,-0.000523736891121729,-0.00141288581639909,7.70104952696471e-06,-0.00248031213066646,-0.00164820557664402,-0.00150896667013622,-0.00638072706029735,0.000241261464553055,-0.000523597927436725,-0.000719398517150971,0.000139915031085458,-0.00450524008764397,-0.00232564765965915,-0.00530360098430371,-0.000582357797369148,-0.00239511169342155,-0.000382604425523958,0.000188784675658304,-0.00215865631411383,-7.5971664044161e-06,-0.00395374250547587,0,-0.00595094694473808,-0.00455402133190042,-0.0016916458607672,-6.1630841731386e-05,-0.00383961548771339,-0.00122384627267902,-0.0036269502101689,-0.00862252698637755,-0.0046806584517336,-0.000744915548137826,-0.00573801809306751,-0.00213804002167883,6.80986575813947e-05,-0.00391267922990579,-0.00108193245341859,-0.0049961076019569,-0.00411726243984578,-0.00210574458416168,-0.00496376332092741,-0.00512292868774988,-0.00595950707217341,-0.00381659966358416,-0.000612477952836699,-0.00596339204118657,-0.00214628942465822,-0.000146414710794573,0,-0.0115986146972502,-0.00108596456563959,-0.0114977671232062,-0.00246092776759044,-8.07763074117673e-06,-0.00352624239850563,-0.00108596456563959,-6.83452833332154e-05,-0.0104716231703881,-0.00200629423433529,-8.21769461989419e-05,0,-0.0049961076019569,-0.00126991765178097,-0.00335333194217924,-8.07763074117673e-06,-0.000999940431976931,-0.00751210466251084,1.87486803753245e-05,-0.00402083965283584,-0.00624868259318534,-0.00108596456563959,-0.00244658159274058,-0.00176395696283338,-0.00165018155475405,-0.000770473093740343,-0.00364621320109748,-0.00842391794452135,-0.00445197078353354,-0.0019718534020301,-0.0216847224565093,-0.00405273307705833,-0.00454164660487821,-0.0154835995535665,-0.00497740262657231,-0.00632656997228676,-0.0115226274913631,-0.00580271780779107,0.000175369038314166,-0.00593493216431984,-0.00605510625673489,-0.0115200124182278,-0.001270928760988,-0.000237050398403049,-0.00105317160388019,-0.000501906491261916,-0.00377037721247397,-0.00277637416957255,-0.00133205413705983,-0.000227036848666984,8.92140302974909e-05,-0.00127682793803352,-0.00791902018898893,-0.000198598873600631,-0.000902937505466106,-0.00509947072851968,-0.00209861375413123,-0.00642101951375285,-0.00372341959791722,-0.0028203283613788,-0.00389861074322173,-0.00349710016999349,-0.00194914247441336,-0.00398658204284708,8.63862205902066e-05,-0.000157652975263822,-2.26838956631781e-05,-0.00170354715101073,-1.14963052260109e-05,8.92140302974909e-05,-0.00394174496215527,-0.00521152547702464,-0.000325687375009487,-0.000157652975263822,-0.00115391493705364,-0.000214995705285048,-0.00259481552735696,-0.00866662224023029,-0.00103622837049144,-0.000486883540986582,-0.00195310552368166,-0.00923359712029415,-0.00704707338027166,-0.00280971035557442,-0.00244636904084583,-0.000439149615102608,-0.00322202078211653,-0.00704837007681602,-0.00345169867686934,-0.00567500847663815,-0.00103018264657617,-0.000962281112298236,-0.000660099106617018,-0.0043941557046896,-0.00496233097216603,-0.00226799267195421,-0.00766505362903391,-0.00103018264657617,-0.000962281112298236,-0.00424354880266087,-0.0108972362062874,-0.00125651072027644,-0.00138925250241329,-0.00441220510240647
"5:16676757:G:A",-3.81889680420855e-05,-5.1304029851984e-05,-0.00145814542760903,-5.48167516019049e-05,-0.00156624088800861,-0.00205215862957608,1.61283770871989e-06,-0.00248044461059127,7.64855438868395e-05,-0.0029291944979466,0,0.000149736060433447,-0.00276000607742954,0.244307867025647,4.42622756722244e-05,-0.00211567353029718,-0.00156505358728598,7.5746926953002e-06,1.01544009112331e-05,-2.45230237867489e-05,-0.00410574836871103,-0.00328251188240802,-1.46060526056147e-05,-0.000983920993961718,-2.93203655603591e-05,-0.00311473504728355,-0.00281199015162104,5.02268269020334e-06,-0.000116315493872143,7.5746926953002e-06,-2.45230237867489e-05,-0.001395978177122,-0.00301193371748631,-0.000103713266363492,0.000116994702087148,-6.85831891651389e-05,-1.71266982178508e-05,0.000267495140805707,-0.00087880997405243,-0.000209694443423558,-6.20161106441586e-05,0.000156357257514728,-2.69347590782232e-05,5.02268269020334e-06,-0.0011280959942539,-0.000894934174373141,4.15208025312808e-05,-0.0010713615200526,-9.97119935242097e-05,-0.0070850860833076,0.000311190992174915,-0.00458454302151701,-0.00372882183397483,-0.00111408178248595,4.70333858029193e-05,-6.20161106441586e-05,-9.56215022540619e-05,0.000188835117538311,-0.000175692667968796,0.000129781946436758,5.02268269020334e-06,-2.93203655603591e-05,0,2.07593881498269e-05,-0.00012632490586828,-0.00284321828972445,-0.00302235857579181,-5.75164294938091e-05,-0.000122390610124867,-0.000170779647366004,-0.00506407389765595,-1.96194375829961e-05,-0.00114305464230924,-0.00298158992151043,0.000104761978808376,-2.93203655603591e-05,-0.00208506873777559,-0.00012632490586828,-3.16802639801494e-05,-2.20847297480731e-05,7.49119668119747e-05,-6.20161106441586e-05,-0.00104824899117517,7.5746926953002e-06,4.70333858029193e-05,-0.00247606718936755,-0.00173888292137647,-4.33967782713651e-05,-0.0025196458270127,0,-0.00351147224674264,-0.000208237544947032,-0.00136765093160873,-1.30787283882938e-05,-9.76780852246506e-05,0.000113882618909322,-0.000208237544947032,-0.000201867480737583,-0.00322217262287428,-0.000388948844874726,-6.85831891651389e-05,0,-3.16802639801494e-05,0.000267495140804819,-0.000205273498862013,-9.76780852246506e-05,0.000116994702087148,-0.00802294929940128,-0.00282954223597542,-0.00686699569591998,-0.00203180629054867,-0.000208237544947032,-0.00335823807244306,8.5716621318177e-05,0.000579511606055405,0.000159721097715781,-0.000241163079153672,-0.00201488663991967,-0.00088297293145434,-0.000122390610124867,-0.00702093220674715,0.000105341776747814,-0.000654872058381883,-0.0010499951929912,-0.00748260912762921,-0.00101832575041172,-0.0028554102061964,-0.000480778958467987,-6.85831891651389e-05,-0.00121564808223074,-2.45230237867489e-05,-0.00373344949052523,-0.000135777894969991,-2.45230237867489e-05,1.01544009112331e-05,-0.00611958068868557,-0.000972123910813139,-0.00331386996178384,-0.0028109120651445,-9.14387822286145e-05,-3.40148661361894e-05,-0.000309191052580537,-0.00213611030347494,-0.00279941493012981,-6.42290649439659e-05,-0.0114742112293955,-0.000189013279909389,-5.97787009501971e-05,-0.000128258501822742,8.07373336959571e-05,-0.0031251812458768,-0.000524548257551771,-0.000129094357635751,-0.0073145616787178,-0.00303483430849383,-0.00372018810690466,-0.00236695830890365,-9.97119935242097e-05,2.49792924744696e-06,-3.40148661361894e-05,-0.00459770684849659,-0.000411191753411089,-5.75164294938091e-05,-0.00372018810690466,0.00023181475132894,-0.000965097575126528,-4.98871127296852e-05,-0.000232303536274792,-0.00531321436401999,-0.00162497940833539,7.5746926953002e-06,-0.00449205589497836,-0.000251501122819242,4.68593102418424e-05,-0.000109250783506099,-0.00261627805732711,-0.000193349928053976,-7.75479596875073e-05,-0.00199611085557283,-0.000142938144552573,-0.00441780138157455,-0.00017360873016159,0.000184316538662799,-0.00179412866281004,-0.00264240632301149,-1.96194375829961e-05,-0.000135777894969991,-0.00441780138157455,-0.00017360873016159,-0.00162681840550816,-0.0100851316414525,3.88084961739921e-05,-0.000132060472639139,0.000279439691273531
"5:16676812:G:A",-0.00170367115032999,-0.00798681868409812,-5.57424675395879e-06,-0.0048424305582957,-4.06351553179363e-05,-4.96988460998438e-05,-0.00319986768902236,1.73958694000831e-05,-2.57502005602817e-05,-0.000100292459389806,0,-4.71501843319899e-05,-0.0016009943986619,4.42622756722244e-05,0.215825480952188,2.4625905441944e-05,-0.00152767621765548,-2.73349665125266e-06,-3.66819194308476e-06,6.35576771124136e-06,-0.000716006920297829,-6.04665969401452e-05,2.77593303632528e-06,1.62856359535724e-05,8.07742992314786e-06,3.68850979182156e-06,-0.00187794951231712,-1.81071460403359e-06,3.01950652916716e-05,-2.73349665125266e-06,6.35576771124136e-06,-9.53982515916607e-06,-2.28234273018657e-05,2.89947389155998e-05,-3.66216099534356e-05,1.94213660176246e-05,3.68850979270974e-06,-8.85308418006048e-05,0.000185747749104515,5.60975201766567e-05,1.70845784310814e-05,-4.96988460998438e-05,-0.000149120069761643,-1.81071460403359e-06,-0.00190788509928019,8.92194438861793e-06,-1.27803761511558e-05,-0.00117945008963449,2.75752979668198e-05,-0.00605550312841174,-0.000105073433480207,7.87520296210431e-05,-0.00152793134406704,-0.00247499517576522,-1.48014111820416e-05,1.70845784310814e-05,2.61194881687743e-05,-0.0035712886167385,4.78576593110347e-05,-4.14821646712582e-05,-1.81071460403359e-06,8.07742992314786e-06,0,-7.53078802873119e-06,3.38017912984157e-05,-0.000600767148010384,-9.86905453679299e-05,1.54763663440249e-05,-0.00232902805425894,4.60940729460901e-05,-0.00425814722609275,4.58918955814624e-06,-0.000154500603959384,-0.000293120609613062,-0.0026280878717424,8.07742992314786e-06,-0.0105682286574504,-0.00223884209032121,8.92194438861793e-06,5.47820117802189e-06,-2.29167140259889e-05,-0.00227121924014106,1.54763663440249e-05,-2.73349665125266e-06,-1.48014111820416e-05,-0.00120540507722211,-1.58317910168293e-05,1.03923276615348e-05,-8.47664523719871e-05,0,6.19309397009715e-05,5.55646867175241e-05,-0.00404683677701811,-0.00160437392767498,2.68520252788562e-05,-3.54461511440363e-05,5.55646867175241e-05,-6.54608342820495e-06,6.41893465687104e-05,1.38260418767189e-05,1.94213660176246e-05,0,8.92194438861793e-06,-8.8530841801493e-05,5.44786163096944e-05,2.68520252788562e-05,-3.66216099534356e-05,-0.0056067458250082,4.58918955814624e-06,-9.98134032315079e-07,-0.00614788522646226,5.55646867175241e-05,-0.00147375413315398,-0.00688624181016539,3.9012502432989e-05,-5.09988544594719e-05,6.29854876228464e-05,-0.000324859205582229,-0.00249334634652865,-0.000108293135465232,-0.00268800867367247,-0.00317872269387642,-0.00387011571184726,3.16664635091612e-05,-0.0107876216491967,3.23876209673557e-05,-0.000291996823701623,-0.000196082301638256,1.94213660176246e-05,9.5048773127715e-06,6.35576771124136e-06,-7.18025648822618e-05,3.71812569728291e-05,6.35576771124136e-06,-3.66819194308476e-06,-0.0115641646898208,2.4625905441944e-05,-0.00191148760184312,9.14143099883802e-07,2.4625905441944e-05,9.75585167406479e-06,-4.2738578125423e-05,-5.32022765380447e-05,-0.000129811131857061,1.78733884697024e-05,-0.0134231134046567,-0.000205566549015934,1.62856359535724e-05,3.44951652930803e-05,-2.50790646072474e-05,-4.61503013227116e-06,-6.80779642800999e-05,6.23922430076362e-06,-0.00227777164062992,-5.62310218592543e-05,-0.00303049827763235,2.30530596381229e-05,2.75752979668198e-05,-8.99621857897159e-07,9.75585167406479e-06,-0.00551740073915319,-0.00798410001785665,1.54763663440249e-05,-0.00303049827763235,-7.57500616819229e-05,-2.18562957279289e-05,-0.000113478821424096,-0.00544520829617579,2.75752979668198e-05,-6.35342332095945e-05,-2.73349665125266e-06,-0.00402195267751981,-0.00542474951533389,-8.75899036749672e-05,3.9012502432989e-05,-0.00177135491165359,-5.22250134036284e-05,-1.96145739055353e-05,-0.000145986500948325,-5.02637811452544e-05,-0.000182791770259705,-0.00136533612919898,-6.06114575392169e-05,-0.00724368619194049,-0.00277354563247467,-0.00661748604284895,-0.00420304338235056,-0.000182791770259705,-0.00136533612919898,-0.00739193200800869,-0.00171041657123006,-1.17892195010683e-05,3.58553596404576e-05,-9.34649792929676e-05
"5:16679505:C:T",-0.00582490048595297,-0.0031114397485883,9.12786068951732e-06,-0.00217394376319202,-0.00186557068043758,-0.00174635774460707,0.000160236188968987,-3.7469042585947e-05,4.340894144228e-05,-8.64194968119847e-05,0,8.15683564505676e-05,-0.00154042065085225,-0.00211567353029718,2.4625905441944e-05,0.250267063600154,3.28992564284647e-05,4.4941950987365e-06,6.02294197626918e-06,-1.30130628201997e-05,-0.00258494090219941,0.00010247882065606,-7.06777384706925e-06,-3.24889382410376e-05,-1.58940453225398e-05,-8.57760672445806e-06,-0.00179467144043999,2.98094191641951e-06,-0.00137473698946344,4.4941950987365e-06,-1.30130628201997e-05,1.55342718075602e-05,-0.00153339774240013,-5.74193180469251e-05,6.40982498536502e-05,-3.78539724747995e-05,-8.57760672268171e-06,0.000143942785135742,-0.00126462861011722,-0.000116861631765275,-3.38512875357466e-05,8.53055057730145e-05,-1.44609981518329e-05,2.98094191641951e-06,-0.00295629816706811,-1.73124295557159e-05,2.3021008878743e-05,-0.00371907333354748,-0.00071754562843207,-0.00458419740351879,0.000166690812719139,-0.00216234881571875,-0.000215225840491051,-4.44857664403386e-05,2.62470647260926e-05,-3.38512875357466e-05,-5.24116472035985e-05,-0.00146724088279182,-9.78599345318187e-05,7.13893295012369e-05,2.98094191641951e-06,-1.58940453225398e-05,0,1.22976329786084e-05,-6.91814711375471e-05,-0.00211900630552719,3.83555020428972e-05,-3.11121604594788e-05,-0.00120829617005302,-9.47018782255782e-05,-0.000297319674606555,-1.00716039259652e-05,0.000229917616105801,-0.00160586324346834,-0.00566272078681695,-0.00259840019664548,3.14029408272631e-05,-0.000358397644270703,-1.73124295557159e-05,-0.000168454494056114,4.11260322605855e-05,-3.38512875357466e-05,-0.00334160488925761,4.4941950987365e-06,-0.00241648790052906,4.62059283989902e-05,-0.00200548634835851,-0.00295644398028116,-0.005050628135014,0,2.6722440968463e-05,-0.00124303142461724,-0.00722402790160981,-0.0029703012958171,-5.36835203819308e-05,6.23201347886848e-05,-0.00124303142461724,1.07045161961139e-05,8.76828042120081e-05,-2.83144040347239e-05,-3.78539724747995e-05,0,-1.73124295557159e-05,0.000143942785135742,-0.000113951747641394,-5.36835203819308e-05,-0.000492202404803521,-0.00172591561092705,-1.00716039259652e-05,-0.00278802527758515,-0.00469633405147896,-0.00124303142461724,-0.00130647943274198,4.49471122729861e-05,-0.00306705120062212,8.7201599251685e-05,-0.000902984311918154,-0.00427918663752269,-0.00460550915247904,-0.00130799809844007,-0.00676076469778586,-0.00235320132893424,-0.00212263740428487,-0.00124080933934323,-0.000428975758422823,-6.67100713025448e-05,-0.00512168832390802,-0.00332583280061449,-3.78539724747995e-05,-0.000167871705520461,-1.30130628201997e-05,-0.00368307377504795,-7.51284679854081e-05,-0.00317676311978676,6.02294197626918e-06,-0.0053562137062233,-4.98267091293414e-05,-0.00648605462188279,-0.0081242413086855,-0.00117572806022626,-1.87163716427463e-05,7.32580583795439e-05,-4.88030706957687e-05,-0.00542693679798667,-3.51994313838588e-05,-0.000364118200279151,0.000125976964731933,-3.24889382392612e-05,-7.03968970059421e-05,4.44957436052107e-05,-0.00627911719146379,0.000111492209214248,-0.00014877053685769,3.75478340828295e-05,-0.00126853175772457,-0.000101225929239668,-0.0065063544659143,-5.49419505544435e-05,1.48295216018113e-06,-1.87163716427463e-05,-0.000101044670234529,-0.00152214724764832,-3.11121604594788e-05,-0.000101225929239668,-0.000486308213773157,3.9466021089396e-05,-0.00190715732215896,-0.00121848782890366,-5.49419505544435e-05,-0.00487776192696554,4.4941950987365e-06,-0.00761037953657251,-0.0022970290172255,-0.000322265062532523,-0.00283830541401464,-6.53498937142061e-05,-0.00129580127165507,-0.00490891034707364,-0.000419816739792189,-0.00598347223381879,-0.00837726060912747,-0.00224170604390217,0.000101012857586902,-0.00198605715638589,-8.2306306721236e-05,-1.00716039259652e-05,-7.51284679854081e-05,-0.00837726060912747,-0.00224170604390217,-0.00218201348378955,-0.00561940981736608,2.14321368208203e-05,-0.000892917610269883,-0.0015548178454905
"5:16679573:T:C",-1.61552709609936e-05,-0.00326521040545469,-7.73934799180864e-06,-0.000145032881615492,-5.71352227822786e-05,-6.97913381042525e-05,-0.000170894999580007,2.31454682717569e-05,-0.00168612450308814,-3.89568996315148e-05,0,-6.60734699717835e-05,-0.00129030146290798,-0.00156505358728598,-0.00152767621765548,3.28992564284647e-05,0.237000479085493,-3.78742823059497e-06,-5.08595278159163e-06,8.54170142883248e-06,-0.00220364696151965,-8.53409262635552e-05,-1.23742702582419e-05,2.18719624323072e-05,1.09027686105989e-05,4.87158305695345e-06,-0.00835442710542011,-2.50717378147414e-06,4.01165441541451e-05,-3.78742823059497e-06,8.54170142883248e-06,-1.32828783971917e-05,-0.00234744697200107,3.87347564254625e-05,-5.10618376754479e-05,2.61118429820684e-05,-0.00202415695898051,-0.000126717966803191,-0.00234278847250025,7.34748088300208e-05,2.29542955212381e-05,-0.00382680703039373,9.73056817876738e-06,-2.50717378147414e-06,1.58675294166244e-05,1.20586407730272e-05,-1.75943090363617e-05,2.24945825006984e-05,3.68436677389283e-05,-0.000260162138411069,-0.000151601110481181,0.000101203209201373,-0.000113991549770986,-0.00199148331518195,-2.04370804013365e-05,2.29542955212381e-05,3.4899243738451e-05,-0.000763811091445632,6.30878819123382e-05,-5.80900561617526e-05,-2.50717378147414e-06,1.09027686105989e-05,0,-0.0018167048840132,-0.00175109150244079,-0.000563813355855203,-0.001702086128196,2.07742039872727e-05,-0.00235948340760217,-0.000759974452017254,-0.00225187494828294,6.11257052351988e-06,-0.00053678442016647,-7.15112346005853e-05,-0.00208597457530235,1.09027686105989e-05,-0.0120505584290456,4.49053421363033e-05,1.20586407730272e-05,-0.00215096191695974,-3.16847969470402e-05,2.29542955212381e-05,-0.0019570896681298,-3.78742823059497e-06,-0.00290954428527357,-3.63320399703326e-05,-2.18893994494707e-05,1.38450079729679e-05,-0.00565148703790364,0,-6.3021658312401e-05,-0.00403275876314613,-0.00130478419014946,-0.00442235403606261,-0.00040105560052961,-4.93682861186784e-05,-0.00403275876314613,-9.0950130120504e-06,-0.000147922002771139,-3.74970698988619e-05,2.61118429820684e-05,0,1.20586407730272e-05,-0.000126717966803191,7.14066715632455e-05,-0.00040105560052961,-5.10618376754479e-05,-7.96687731869916e-05,6.11257052351988e-06,-0.00227655516366188,-0.00116176258796052,-0.00403275876314613,-0.000511522327974134,-0.00258909888855285,5.15542499615051e-05,-0.00110886855360892,8.20127404450588e-05,-0.00025217119926646,-0.000616917062109756,-0.00427339389908621,-0.00874471805897592,-0.00156756136466019,-0.00190863618935566,-0.00229745358218825,-0.00200571003720507,-0.00184181221319157,-0.000120896391779368,-0.00155813527489101,2.61118429820684e-05,-1.07905267725528e-05,8.54170142883248e-06,-0.000144284049627075,4.93637044591821e-05,8.54170142883248e-06,-5.08595278159163e-06,-0.000803471768572539,-0.00183549556032059,4.87158305784163e-06,-0.00421992804001903,-0.00248029765508306,1.31985138196455e-05,-5.99133815910591e-05,-0.000563038639021407,-0.00141821686548926,2.40215174107661e-05,-0.00393067409180103,-0.000368604411547402,2.18719624323072e-05,4.58223505761524e-05,-3.47605806902962e-05,-0.00249427919942757,-0.0059004924072763,-0.00145261733024871,-0.00949605404138731,-0.000210100104046873,-2.04370804004483e-05,-0.00207579485390141,3.68436677389283e-05,-1.24481818986055e-06,1.31985138196455e-05,-0.000226072403083144,-0.0100002405274564,2.07742039872727e-05,-2.04370804004483e-05,-0.0020129544946057,-3.01795552779538e-05,-0.00135164137221278,-0.00953504384342718,3.68436677389283e-05,-0.00289605480463528,-3.78742823059497e-06,-0.00482583744586407,-9.92651055398142e-05,-0.00219506155881533,-0.000571299450649931,-0.00779882592211756,-0.00110349229596762,-0.00372182185068848,-0.00242136620475275,-0.0034918360742644,-0.000666399977704124,-0.00149723394706403,-0.0014229482778223,-0.00387294429716212,-0.00777404189222874,6.11257052351988e-06,4.93637044591821e-05,-0.000666399977704124,-0.00149723394706403,-0.00420225203894686,-0.00142467077425934,-1.62030124881696e-05,4.7617843567771e-05,-0.000134194841167279
"5:16681710:T:C",-0.00231029798111138,-0.00484863503524391,-1.05520028981232e-06,9.87580874411975e-06,-8.47689631555681e-06,-1.06837027837869e-05,-2.41811396044511e-05,-0.00209533175661569,-5.18219925638164e-06,-0.00210033422310563,0,-1.00991792013616e-05,-0.00548217701928611,7.5746926953002e-06,-2.73349665125266e-06,4.4941950987365e-06,-3.78742823059497e-06,0.228953378074207,-6.91299823607494e-07,1.23522016881594e-06,1.47072715579455e-05,-1.32827752885589e-05,5.84446910423253e-07,3.04404098727673e-06,1.54402845442547e-06,7.51447661428983e-07,-0.00470080490542291,-3.39750687139428e-07,5.44527983503684e-06,1.48499855416873e-05,1.23522016881594e-06,-1.82243299917673e-06,-0.00231942461515811,5.18675462579665e-06,-7.66804448382175e-06,3.57200775713551e-06,7.51447662317162e-07,-2.04214467842689e-05,-1.28178564047232e-05,9.19359656403884e-06,-0.00325154211970613,-1.06837027837869e-05,1.39095311180171e-06,-3.39750687139428e-07,-0.00240740812625262,1.69450634412982e-06,-2.53346335288285e-06,1.47492247482006e-05,4.96383019310542e-06,-1.16435665429293e-05,-2.48743401494167e-05,1.18554635912815e-05,9.20938688331319e-06,3.9902743971254e-06,-2.9370039582588e-06,3.17945616767901e-06,4.7330999572992e-06,-1.32827752885589e-05,8.06387945928577e-06,-8.74498692304826e-06,-3.39750687139428e-07,1.54402845442547e-06,0,-1.43203774705114e-06,-0.00179190891137715,1.08120312303228e-05,-0.00244863703883702,2.90625456322857e-06,5.78034733766941e-06,7.8256703526236e-06,-0.00978859989946113,-0.00245678923146553,-3.92898125030072e-05,-0.00389962304358704,-0.00618011980963917,1.54402845442547e-06,-0.00425010089140887,5.99387307875787e-06,1.69450634412982e-06,1.07676773186682e-06,-4.6654358438758e-06,3.17945616767901e-06,2.90625456322857e-06,-5.14016637254144e-07,-2.9370039582588e-06,-5.34901708793001e-06,-3.14406621626517e-06,-0.00241560470710844,-0.00188580877353406,0,1.00457103124896e-05,9.12760578763994e-06,-0.0127530050687339,-0.00238391425094164,4.84946335355119e-06,-7.41033550344383e-06,9.12760578763994e-06,-1.24196394946097e-06,-0.00274816775450848,2.62334352107985e-06,3.57200775713551e-06,0,1.69450634412982e-06,-0.0039314390054459,8.99211149540946e-06,4.84946335355119e-06,-7.66804448382175e-06,-0.0119249947113165,9.15532092804483e-07,-1.1414191813941e-07,-0.002758812456368,9.12760578763994e-06,-0.00199718057662235,-1.27236252200902e-05,6.83565058157143e-06,-1.09837022446158e-05,1.0082648199905e-05,-0.00214461879932237,-0.00244195480852039,-0.00263858316647347,1.04989610010264e-05,-7.09089340666935e-06,-0.00556725915219136,5.67067626633388e-06,-0.00877253063290429,5.78034733766941e-06,-0.00152971316346928,-5.23726982324391e-05,3.57200775713551e-06,1.87046067345875e-06,1.23522016881594e-06,-0.00226477043245144,6.49582044420782e-06,1.23522016881594e-06,-6.91299823607494e-07,-0.00206996805590176,4.4941950987365e-06,7.51447662317162e-07,2.41416187485299e-07,4.4941950987365e-06,1.84244523282473e-06,-0.00156336863590223,-0.0048095931785106,-0.00120990954024069,3.31255421670562e-06,-0.00219115167786121,-0.0016957026937785,3.04404098905309e-06,-0.00449895243132037,-5.11721772245011e-06,-8.71670333246755e-07,-1.50378818410957e-05,-0.00531870299276438,-0.00892805270283237,-0.00251589459390367,-2.93700395737062e-06,-0.00594965512821055,4.96383019310542e-06,-1.68433871294837e-07,1.84244523282473e-06,-0.0110090252878807,-0.00176249411477425,-0.00279209690976057,-2.93700395737062e-06,-0.00120840746880013,-4.44527560539143e-06,-0.00304029900703551,-0.0020849666159517,4.96383019310542e-06,-0.00176684218102352,-0.00237343597508133,-0.00389680273896609,-1.24838307877795e-05,9.45779546235315e-06,-0.00200094515318661,-0.00223117100555736,-0.0065730246599589,2.53997536692196e-06,1.0899490648697e-05,-0.00253462800709503,-0.00233784994831954,-0.0018172299909569,-0.00172807527565588,-0.000326035718087425,-0.00222329016436351,9.15532092804483e-07,6.49582044420782e-06,-0.00233784994831954,-0.0018172299909569,-0.000273670328428288,-1.4865994164559e-05,-2.33682540695668e-06,-0.00350940532911004,-2.17068543966192e-05
"5:16682136:T:C",1.32189384727255e-05,-0.00192084648111823,-1.41924713403796e-06,7.23946248193386e-06,-1.13861160739859e-05,-1.43331826381043e-05,-0.0025733045578713,-0.00236359247117157,-6.96277753942098e-06,-7.20146920318854e-06,0,-1.3546913389284e-05,-0.00191579922398599,1.01544009112331e-05,-3.66819194308476e-06,6.02294197626918e-06,-5.08595278159163e-06,-6.91299823607494e-07,0.195211584429908,1.65363661164264e-06,1.97210122321323e-05,-1.78184726902231e-05,7.78189431116516e-07,4.07925330581094e-06,2.06899323007548e-06,1.00286335147359e-06,-0.0021714671643327,-4.56918383129334e-07,-0.00832005052664453,-6.91299823607494e-07,1.65363661164264e-06,-2.45144442612144e-06,-0.0022410490341791,6.95450405441278e-06,-0.00436005387717042,4.78936667658303e-06,1.00286335324995e-06,-2.73978884219872e-05,-2.08425692633796e-05,1.23268023672907e-05,4.26139990938879e-06,-1.43331826381043e-05,1.86310748429008e-06,-4.56918383129334e-07,3.20189437630347e-06,2.27137522479381e-06,-0.00431806894756637,1.97776061572341e-05,6.65467978144818e-06,-0.00275603015800563,-0.00124634695609327,-0.000194535642199511,-0.00277818609792657,5.34493958515014e-06,-3.94192323227571e-06,4.26139990938879e-06,6.34432544455166e-06,-0.000991450927408266,1.08124388509268e-05,-1.17357144979735e-05,-4.56918383129334e-07,2.06899323007548e-06,0,-1.92619806149708e-06,8.03379522373859e-06,1.44887756574619e-05,-0.00197039161280621,3.89390755106689e-06,-0.00268796643955493,-0.00121201330429166,-0.0018421190367226,1.22360203391736e-06,-5.27111103272304e-05,-0.00242564516501265,-0.00593347126027766,2.06899323007548e-06,-0.000279002660181327,8.03379522373859e-06,2.27137522479381e-06,1.44049686667813e-06,-6.25781156138316e-06,4.26139990938879e-06,3.89390755106689e-06,-6.91299823607494e-07,-3.94192323227571e-06,-0.00159384102668891,-4.22045053483089e-06,2.71026847187272e-06,-0.0025625149738282,0,-0.00251264950975649,1.22380341469608e-05,-0.000420295560999762,-0.00249037523211726,6.50084938680351e-06,-9.94031986323307e-06,1.22380341469608e-05,-1.67048934418546e-06,-0.00266345072199403,3.51331481862616e-06,4.78936667658303e-06,0,2.27137522479381e-06,-2.73978884237636e-05,1.2055758094931e-05,6.50084938680351e-06,-1.02869572842224e-05,-0.00233480495147997,1.22360203391736e-06,-1.61784469376869e-07,-0.0012063716976316,1.22380341469608e-05,1.71916768705316e-05,-7.90865039412836e-06,-0.00199246204824632,-0.00134696504820919,1.35179184006518e-05,-0.00416597701245625,-0.00235839189307097,-0.0013026518290058,-0.00152501015437512,-9.52076847315908e-06,-0.000853186157740105,-0.00600327264383615,-0.00115878129860203,-0.00268796643955493,-0.00168581306875204,-0.000890943336041339,4.78936667658303e-06,2.50028706538785e-06,1.65363661164264e-06,-0.00202775574992842,-0.00463890848274495,1.65363661164264e-06,-9.29751416300917e-07,-0.000121937307472564,6.02294197626918e-06,1.00286335324995e-06,3.16656485921385e-07,-0.0017839710499068,2.47033254652251e-06,-1.21142025708565e-05,-1.52219822506794e-05,-0.0019462654489093,4.44042057878846e-06,-0.00877640788324552,-0.00163178189369706,4.07925330669912e-06,-0.00299231336503336,-0.00342185776322967,-1.17236798580223e-06,-0.000366412527127657,-0.0048057967795927,-0.00658638818627466,-0.00190962687823149,-3.94192323049936e-06,5.78160149444784e-06,6.65467978144818e-06,-2.26514956125357e-07,2.47033254652251e-06,-0.00253850936657507,-0.000455876526850751,3.89390755106689e-06,-3.94192323049936e-06,-2.29320917579656e-05,-5.96171788025401e-06,-3.63544132788718e-05,-0.00336090822363122,6.65467978144818e-06,-1.87137461855613e-05,-0.00229211982162436,-0.00294367551675556,-0.0042275494560764,-0.00255079863843655,-0.00191838450317938,-0.00219875626034582,-0.00341535539689275,-5.04476072560323e-06,1.46123364510586e-05,-1.43108260708402e-05,-0.00319211408973619,-1.36981768221744e-05,-0.00280970302788308,-0.00759149257269609,-0.000771618507907412,1.22360203391736e-06,8.70903365690623e-06,-0.00319211408973619,-1.36981768221744e-05,-0.00546220891550409,-0.00892532506527566,-3.13468242207904e-06,8.44602409610928e-06,-2.91274243364725e-05
"5:16682225:C:T",-0.0018605002355736,-0.00433594190362552,2.50068447016361e-06,-0.00642059939540296,1.72557393112172e-05,-0.0015717492745928,3.7391834717404e-05,-0.00618949431927263,-0.000323982011435575,-0.00236097947127334,0,2.00732584065832e-05,-0.000531770129889253,-2.45230237867489e-05,6.35576771124136e-06,-1.30130628201997e-05,8.54170142883248e-06,1.23522016881594e-06,1.65363661164264e-06,0.240062687979679,-0.0014337637827424,2.48327098990586e-05,-0.0018058617273482,-8.41039028998125e-06,-4.07845553240804e-06,-2.02434457996503e-06,-0.000647949384035229,8.20164051340555e-07,-0.00280788806492005,1.23522016881594e-06,-3.26722690680015e-06,4.23658808923477e-06,9.79858117755583e-06,-1.52710110139509e-05,-0.00786874052925057,4.69473065329851e-05,-0.00179469187608916,-0.00360973904446737,-0.000721382797413739,-3.1907035006995e-05,-8.80425685600983e-06,-0.00751624953337338,-3.67455191074839e-06,8.20164051340555e-07,-7.19810984550762e-05,-0.00141308640571136,5.92856881009851e-06,-0.00010796948343561,-1.45320244060443e-05,-0.00398870751405056,-0.00332589332383915,-0.00340286036880855,-0.00244428772128025,-1.14370792099194e-05,6.78625804262367e-06,-8.80425685600983e-06,-1.37794909722544e-05,-0.00399085430987256,-2.65456737542635e-05,1.78092567386656e-05,8.20164051340555e-07,-0.00160610625021818,0,-0.00198345976029923,-0.00738528614172917,-0.000132734483406338,-0.00199069805443663,-8.01303759523364e-06,-0.00594265420396312,-2.55490999716557e-05,3.88775667001795e-05,-2.44216150324661e-06,4.92177503268465e-05,-0.000136007256681836,-0.0020041672536637,-4.07845553240804e-06,-0.000649275262571081,-0.00137339523520907,-4.47897512501072e-06,-2.85644279873765e-06,1.04089365695614e-05,-0.0013801800261426,-8.01303759523364e-06,1.23522016881594e-06,6.78625804262367e-06,-0.00275468269970602,7.22006821263221e-06,-6.75593585723888e-05,-0.00490628982463015,0,-0.00340171298189684,-3.15950248923613e-05,-0.00470882767554404,-0.000181461120156712,-1.41574725454063e-05,1.55588045096522e-05,-3.15950248923613e-05,2.92938334567339e-06,-0.00320190473627235,-0.00288149080781963,-9.9653490570617e-06,0,-4.47897512501072e-06,-0.00343553081656722,-3.09615452902534e-05,-1.41574725454063e-05,1.60028430382653e-05,-0.00182851323189581,-2.44216150324661e-06,-0.00254699066385378,-0.0024639912646629,-3.15950248923613e-05,-0.0037677548665771,-0.0150754638681123,-0.00276559966857093,2.14274506831202e-05,-0.00373193499189561,-0.00543605779365475,-9.20355963733854e-05,-1.75279577954157e-05,-0.00242427225817909,1.48907563408684e-05,-0.00187395826274361,-1.71471198129325e-05,-0.000196473381905093,-0.00336729183255624,-0.00296537998426327,-0.00112296778634846,-9.9653490570617e-06,-5.13038951766021e-06,-3.26722690680015e-06,-0.00312499170855229,-0.00502493451870478,-3.26722690680015e-06,1.65363661164264e-06,-0.00459842909362251,-1.30130628201997e-05,-0.00179469187608916,-7.49290316903739e-07,-1.30130628201997e-05,-4.87614766786493e-06,-0.00181184948510804,-0.000957633098229493,-0.00197245595274964,-0.00121809989784527,-0.00187549146108523,-0.00186091965648405,-8.41039028998125e-06,-0.00131411634464929,1.12795477162919e-05,2.07544683039629e-06,-0.00226523254370381,-0.0018614623082831,-0.000835404337244938,-0.00452123702536511,6.78625804262367e-06,-0.00161463553916885,-1.45320244060443e-05,4.084350075928e-07,-4.87614766786493e-06,-0.000516751612751776,-0.000926697998149706,-8.01303759523364e-06,6.78625804262367e-06,2.98373359557402e-05,9.97833832716566e-06,-0.00253089319878441,-0.000634678229795682,-1.45320244060443e-05,-0.00233723709585032,1.23522016881594e-06,-0.00415418405895185,-0.000737079414204089,-3.35439106891045e-05,-2.16326728637029e-05,-0.00248370590456481,-0.00211354334402802,-0.000456056301548102,-4.16768980375792e-05,-0.000607281566073148,-0.00283230877224927,-0.00229759482438663,-0.00196604617952012,-0.00132303686518664,-3.07437348885387e-05,-2.44216150324661e-06,-2.00940815213713e-05,-0.00283230877224927,-0.00229759482438663,-0.00117227211081161,-0.000177629055216677,5.50463292636749e-06,-1.93782380772944e-05,-0.000436029568517959
"5:16684807:G:A",-0.000168986407333094,-0.00810805835163153,-0.000235777342266097,-0.0017717743298995,-0.00957089466189398,-0.00229946686929416,-0.00528981420698393,-0.00599971474483585,-0.00734303660129143,-0.00246170001180923,0,-0.00329887422911845,0.00020635572383032,-0.00410574836871103,-0.000716006920297829,-0.00258494090219941,-0.00220364696151965,1.47072715579455e-05,1.97210122321323e-05,-0.0014337637827424,0.546523465251921,-0.00329491707943941,-0.00287027259048056,-0.00130632381474882,-8.09288572076738e-05,-0.00343520572974487,0.000661983686376377,9.74981291257393e-06,-0.00301665857879296,1.47072715579455e-05,-0.0014337637827424,-0.00637916923836102,-0.0027281070130325,-0.000396085638272758,0.000398790587299303,0.000204291772072374,-4.05996599450731e-05,-0.0025863908583279,-0.00102902367609303,-0.00331007072451506,-0.00391587307574781,4.34845398986639e-05,-0.00252184466501948,-0.00195337019781139,-0.00361481399431618,-0.00112858864061227,-0.00253843113556762,-0.0053828771198452,-0.000391227939733341,-0.00715608531566803,-0.00163406737953853,-0.00558790831212264,-0.00745187038161443,-0.00229439804462483,-0.00217856578405318,-0.000249618201455526,-0.00124680830784207,-0.00150859297116845,0.000721150916867863,-0.00389708897505248,-0.00301081048443308,-0.00269749565759447,0,-0.00311896325968419,-0.00315977924766564,-0.000286496599463337,-0.000350853731792888,-0.0092725248202985,-0.00298880739822405,-0.00111850362111987,-0.00254718763251427,-0.0003260488695771,-0.00249335302947706,-0.00797685593944264,-0.0053439097355712,-0.00011934807181202,-0.00571722162842914,-0.00378751571888003,0.000250495662988293,-0.000106637331509063,-0.00132668119289114,-0.000578272347085296,-1.78480814208015e-05,-0.00300585222971606,-0.00217856578405318,-0.0147336430640417,-0.0105206969537868,-4.84988513385076e-05,-0.00440709181215748,0,-0.0026306538356673,-0.0022295708160458,-0.0119172866274204,-0.00317717547118646,-0.00419483749860028,-0.0026320566852478,-0.0022295708160458,-0.00796019775040158,-0.0012553048169508,-0.000515394919616163,0.000204291772072374,0,0.000250495662988293,-0.00180735259601494,-7.255812181306e-06,-0.00419483749860028,-0.00262139907871273,-0.00799032837911584,-0.00619668559461228,-0.00360363395523766,-0.00204088968031124,-0.0022295708160458,-0.0073905175310558,-0.0033244088437292,-0.00262481482242993,-0.00252538422153936,-0.000115406896583181,-0.0031176810843867,-0.0127111339289594,-0.00242576442074238,-0.00356206009682714,-0.00668107461808454,-0.00378859224271055,-0.00616799565193471,-0.00224566317023545,-0.000711661686840337,-0.0117932691815947,-0.00255183931500103,0.000204291772072374,-0.000148244897785865,-5.46770902705163e-05,-0.00979646840737036,-0.00148186284612883,-0.00316830598748563,1.97210122321323e-05,-0.00303354126435584,-0.000348155593708377,3.53279357589997e-06,-0.00324193295728836,-0.000271058763210874,-0.000127590186563609,-0.000507064677825575,-0.000547756355483209,-0.000871453862926419,0.000133100889647686,-0.0121075243272935,-0.00506272859094237,-0.000376753984561162,0.000177188787678695,-0.00169545289613549,-0.00131255036778022,-0.00252015427988184,-0.00214188922908232,-0.00908519189978518,-0.0033119893404141,-0.00200658195620207,-0.000898866519476904,-0.00176193227759125,-0.00346799034164746,-0.000127590186563609,-0.00088104691965496,-0.00663408866624904,-0.00306831623733217,-0.00200658195620207,-0.00306178801556545,0.000111973431049073,-0.00398409600696592,-0.00347846451299372,-0.0123147230435681,2.56878079980538e-05,-0.00175554691575286,-0.0129748701452073,-0.00593801292073248,-0.000620140426107696,-0.00011549857566262,-0.00117870137948728,-0.00116902719932366,-0.000292393771571753,-0.000317655583974563,-0.00163031799580082,-0.00402534398308241,-0.000277487230787798,0.000106194665238313,-0.00549005341082154,-0.00834890164811064,-0.0016560928622873,-0.00336212055181129,-0.00402534398308241,-0.000277487230787798,-0.00542727968664147,-0.00243725428620678,0.000134403369806968,-0.00414528860555219,-0.00350806680481597
"5:16684881:C:T",-1.15462033862812e-05,-0.00570330772644656,-0.000110798907426712,-0.00404675292535206,-0.000180909059077194,-0.000211343584025414,-0.00125044531741647,-0.0010631463763211,-0.000822840951104631,-0.000939563797016874,0,-0.000199720064998132,-0.00297587030813773,-0.00328251188240802,-6.04665969401452e-05,0.00010247882065606,-8.53409262635552e-05,-1.32827752885589e-05,-1.78184726902231e-05,2.48327098990586e-05,-0.00329491707943941,0.1817141030411,7.1878197465125e-06,-0.00158179998121533,3.33358375321779e-05,1.16813509896119e-05,-0.00529402164411152,-8.8017817176933e-06,0.000123158775653387,-1.32827752885589e-05,-0.00130609432210793,-4.62395780260749e-05,-0.000964303211467232,0.000124910828568581,-0.000156564267684622,8.32735938036677e-05,1.16813509922764e-05,-0.000369844147821929,-0.0015634162448559,0.00024401849461686,7.15045075470044e-05,-0.000211343584025414,2.9110077067962e-05,-8.8017817176933e-06,-0.00104859877347696,-0.00222448557597765,-5.56727441489713e-05,0.000653798147876472,0.000117614044023107,-0.000903993666419467,-0.000296950642657556,-0.00085381777264093,-0.00060479241435285,-0.00378151765557977,-6.53193081889825e-05,-0.00186594213561619,0.000110138912282842,-0.00025502772790098,0.000208179624132221,-0.000179016962982281,-8.8017817176933e-06,3.33358375321779e-05,0,-3.65288059782642e-05,-0.00149280470921642,-0.00503396364781317,-0.000837587723824917,-0.00141374132717509,-0.00132366333708944,0.000198683706923219,-0.00204835626884314,1.61193322991693e-05,-0.000628224855478976,-0.00108169437492744,-0.0036418425984861,3.33358375321779e-05,0.000140574016990413,0.000142024947296981,3.75109184886924e-05,2.05027860973317e-05,-9.80585567464942e-05,7.15045075470044e-05,6.34173442985997e-05,-1.32827752885589e-05,-6.53193081889825e-05,-0.00011340114608327,-7.02319668217655e-05,3.79174134303994e-05,-0.000908156340787336,0,-0.00352627133683203,0.00024107071372903,-0.00403280761753333,-0.00363975582072928,0.000113899177328847,3.93845887725064e-06,0.00024107071372903,-3.17639770051059e-05,0.00026681950949925,5.51289050694237e-05,8.32735938036677e-05,0,3.75109184886924e-05,-0.000230681538335276,0.000235066314241195,0.000113899177328847,-0.000156564267684622,-0.00196825996737093,1.61193322991693e-05,-1.13631695644045e-05,-0.0062956542292234,0.00024107071372903,-0.000546282743716375,-0.00615169108861302,-0.000673945478562921,-0.000217264915949755,0.000272348799162714,-0.00204550123393155,-0.00401625190392441,0.000134621204646912,-0.000764279556047853,-0.000972793218909196,-0.00442944186538607,-0.00126424365760247,-0.00459383591139506,0.000134621204646912,-0.00311588850578204,-0.00231059321497629,8.32735938036677e-05,3.34763939733307e-05,-0.00130609432210793,-0.00593174353798531,0.000159751961695598,2.48327098990586e-05,-0.000991450927408266,-0.00262294908954974,-0.00146724088279182,1.16813509922764e-05,-1.97011152369697e-06,0.00010247882065606,4.16362250845737e-05,-0.000184808836077188,-0.000833180251919252,-0.0012203512121518,7.54748854392417e-05,-0.00470608986991294,-0.00227930322632641,6.74856249229805e-05,-0.00343811699894747,-0.000108224184548256,-2.24098803576211e-05,-0.00233187807603574,8.89884536015018e-06,-0.00688601870857752,-0.00090171095120084,-6.53193081880943e-05,-0.000545605483483591,0.000117614044023107,-4.37450962387231e-06,4.16362250845737e-05,-0.000459246125021018,-0.00495997161962869,-0.00141374132717509,-6.53193081880943e-05,-0.000318352090334706,-9.30676251540419e-05,-0.00136719409753994,-0.000150685315558619,0.000117614044023107,0.000116831881420865,-1.32827752885589e-05,-0.000969068669811612,-0.00106849683347487,-0.00263847959870578,-0.000692735646360632,-0.000176632936104149,-0.00288800089834051,-0.00184509789698506,-0.00310725786236521,-0.0016982348182335,-0.000763471116973946,0.000135365971538626,-0.000260893738120771,6.6626395183178e-06,-0.00211912762274391,1.61193322991693e-05,0.000159751961695598,-0.000763471116973946,0.000135365971538626,4.34372763224999e-05,-0.00657607704861007,-5.09366870593553e-05,0.00015279117678979,-0.000259864716851688
"5:16688011:C:T",2.14698683720371e-06,-0.00205594254840413,-0.00209402440812401,-0.0029571087295146,6.16963400013049e-06,6.82009087871194e-06,-0.00396976559163953,-0.00134100789736724,-0.0021297604254924,-0.00444681351994003,0,6.68390729607893e-06,-0.00567489202622795,-1.46060526056147e-05,2.77593303632528e-06,-7.06777384706925e-06,-1.23742702582419e-05,5.84446910423253e-07,7.78189431116516e-07,-0.0018058617273482,-0.00287027259048056,7.1878197465125e-06,0.256987344562037,-4.37402651165542e-06,-2.02680488659013e-06,-9.67712718846769e-07,-5.1981081105712e-05,3.90129472727097e-07,-9.14041284172384e-06,5.84446910423253e-07,-1.60295322437776e-06,1.92498165318966e-06,-0.00194444459535159,-8.47862352948425e-06,5.86866284191245e-06,-5.2746602232645e-06,-9.67712718846769e-07,6.4757485009892e-06,-0.000372132467128861,-1.99668167271128e-05,-4.59994322987711e-06,6.82009087871194e-06,-1.81487370731759e-06,3.90129472727097e-07,-0.00240564436512347,-2.23870418736283e-06,2.6044428551586e-06,-0.00138691528817692,-8.01201965039411e-06,-0.00748529959729449,5.00869268638127e-06,-3.29655368647153e-05,-0.000518702072643151,-0.00258294751268906,-0.00776860876972751,-4.59994322987711e-06,-7.54169295813512e-06,7.1878197465125e-06,-1.60516119365184e-05,-0.00368592040100602,3.90129472727097e-07,-2.02680488659013e-06,0,-0.00184744690281224,-0.00144069683894887,-8.48116953768852e-05,-0.000620257453144646,-4.14765293399455e-06,-0.00152885074710252,-1.53358271273163e-05,-0.0020922970917594,-1.17932489462902e-06,-3.63251493951111e-06,-0.00284068220042366,-0.00527991721185384,-2.02680488659013e-06,-0.00147749692261456,-1.03824139774389e-05,-2.23870418736283e-06,-0.00571013793691222,4.25141335735901e-06,-4.59994322987711e-06,-4.14765293399455e-06,5.84446910423253e-07,-0.00252114187289987,4.68114351992455e-06,3.11498717575631e-06,-2.78171251633097e-06,-0.0018497860732154,0,-0.00311883586373529,-1.97307431051286e-05,-0.0110176564254778,-0.000113848500828517,-0.00285676760652098,5.75912964606573e-06,-1.97307431051286e-05,-0.00218688997141214,-0.0035732331374998,-3.69366336450128e-06,-5.2746602232645e-06,0,-2.23870418736283e-06,6.47574850187738e-06,-1.92533018186225e-05,-0.00285676760652098,-0.00550224513787256,-0.0135693295142283,-0.00245053187086697,-0.00411724722263518,-0.000216921897964184,-1.97307431051286e-05,-0.00563097551414415,-0.0098857286408407,-1.25908921191353e-05,6.88196762954618e-06,-0.00116984300902612,-0.000944634187144633,-0.0057575873228517,-0.00264678343169145,-0.000803544726629468,-0.00229803668649797,-0.00121423423435374,-9.64087210952869e-06,-0.000941691483205442,-0.000968080360538082,-0.00156310957407158,-1.51792450973076e-05,-5.2746602232645e-06,-0.00514502911547776,-1.60295322437776e-06,-0.000832601705569758,-0.000881431190224546,-1.60295322437776e-06,-0.0050622276168717,-0.000963499966090797,-7.06777384706925e-06,-9.67712718846769e-07,-3.34306802685091e-07,-0.00288699652022117,-2.45053097280845e-06,-0.00153851675512051,-0.00145138355654062,-0.0041446600011934,-4.82537311263798e-06,-0.00171105657983395,-0.00127488088278049,-4.37402651165542e-06,-0.00138126767304403,-0.00155702258386103,9.71296346463646e-07,-2.67675838312442e-05,-0.00463580678532427,-0.00358750615314873,-0.00212843509679672,2.94614158669049e-06,-0.00248174930374656,-0.00104721862085633,1.95295263516471e-07,-2.45053097280845e-06,-0.00417301032399031,-0.000699776217409021,-4.14765293399455e-06,2.94614158669049e-06,7.08936007143279e-06,4.10425118158031e-06,-0.00155200154895407,-0.000167616714247032,-8.01201965039411e-06,-0.00173586243067803,5.84446910423253e-07,-0.000832227487162385,-1.24224440885001e-05,-2.11561714573705e-05,-0.00123222003386569,-3.26789938842609e-06,-0.000534046748499328,-0.00675806042853289,-2.75396560436292e-05,-0.00727396538006531,-0.00490257918894255,-0.00179083883989595,-5.65559442522456e-05,-0.00101840087874194,-0.00080201052633555,-1.17932489462902e-06,-0.000881431190224546,-0.00490257918894255,-0.00179083883989595,-0.000908662782081127,-0.000476487712719909,2.43174917891054e-06,-1.11127492523622e-05,-0.00117380796922895
"5:16688519:T:G",-0.00157514242518531,-0.003532966262485,-0.002805141658067,-0.00183441381420835,4.52786972555685e-05,5.62183040102582e-05,0.000106120546630173,-0.00315777358006208,2.89631670700174e-05,2.80035478006369e-05,0,5.37095389434583e-05,-0.00022384783864382,-0.000983920993961718,1.62856359535724e-05,-3.24889382410376e-05,2.18719624323072e-05,3.04404098727673e-06,4.07925330581094e-06,-8.41039028998125e-06,-0.00130632381474882,-0.00158179998121533,-4.37402651165542e-06,0.244656832114905,-1.03670743758499e-05,-5.39888570827429e-06,-0.00740301253108377,2.01919550146812e-06,-4.08272881449179e-05,3.04404098727673e-06,-8.41039028998125e-06,1.05171214981326e-05,-0.00158834034429756,-3.76842321330173e-05,4.22461828621934e-05,-2.48443839110379e-05,-5.39888570738611e-06,9.47946696241431e-05,-0.000124157644155964,-7.6610485101547e-05,-0.00113516309077166,5.62183040102582e-05,-9.39372846175957e-06,-0.00315825067929865,-0.00142190272044918,-0.00609526109219694,1.52015690160212e-05,-0.00120159926592667,-0.000741595420905128,-0.00504837372210254,-0.00166656628210848,-0.00104993970222544,-0.00262356821963117,-2.88366443950139e-05,-0.0021724948927293,-0.00330177558308709,-3.42572729321589e-05,6.74856249229805e-05,-6.42207958030383e-05,4.71483146062823e-05,2.01919550146812e-06,-1.03670743758499e-05,0,8.3269150197296e-06,-0.00359282068550382,-0.00368369396762613,-0.00171594946806586,-2.02496379486661e-05,-0.00341536150928601,-6.20356787965903e-05,-0.00341104666972392,-6.41312562876806e-06,-0.00113204177428905,-0.00406869153921363,-0.00402955585220255,-1.03670743758499e-05,-0.00297035992604755,-4.51442641198341e-05,-1.13305771956007e-05,-7.41690773242709e-06,2.70831327391363e-05,-2.21160985738322e-05,-0.00789418633253902,3.04404098727673e-06,1.73805530723214e-05,3.05066046335511e-05,1.8486480030333e-05,-1.44083678348395e-05,-0.00182553589351375,0,-0.00131236754039765,-7.59417564006881e-05,-0.000591124587567826,-4.27730375376356e-05,-3.51275126790895e-05,4.10502918004596e-05,-7.59417564006881e-05,-0.000336641131480242,-0.00121360907566714,-1.83437032568179e-05,-2.48443839110379e-05,0,-1.13305771956007e-05,9.47946696232549e-05,-0.000816151287565958,-3.51275126790895e-05,4.22461828621934e-05,-0.000213128968522547,-0.000108670083446505,-1.65051959655216e-07,2.7120541205683e-05,-7.59417564006881e-05,-0.00321703930965445,-2.82928148163109e-05,-0.00143302054214178,5.7490916741898e-05,-0.00410153427780724,-0.00174214211958557,-0.00139817157009769,-4.34459317339986e-05,-0.00824593152751696,-0.00192979319951903,-0.00130316098500227,-4.25826923242667e-05,-0.00233891423110499,-4.34459317348868e-05,-0.00506874642479715,-0.00349676475507721,-2.48443839110379e-05,-0.00147690489719121,-8.41039028998125e-06,-0.0039836577564083,-4.92327999896958e-05,-0.00147872793418191,4.07925330581094e-06,-0.00117542953028504,-0.00351469568152218,-0.00153963649188604,-2.29178807753527e-06,-3.24889382410376e-05,-1.22843831880104e-05,4.84043411734802e-05,-0.00180903793181031,-5.00629284960752e-06,-2.30349024539223e-05,-0.00433237373983353,-0.0100640601125601,-2.11877264923999e-05,-4.59796587488626e-05,2.93542092038024e-05,5.12498737847977e-06,-0.00415397971923159,-0.000392532376644716,-0.010604962078351,6.054572189651e-05,1.73805530732096e-05,-0.00137503599407651,-3.59886593708225e-05,1.00456487217571e-06,-1.22843831880104e-05,-0.00751399358181981,-0.00284260792961977,-2.02496379486661e-05,1.73805530732096e-05,8.25556641572689e-05,2.59641338899996e-05,-0.000901208161534939,-0.00469753828514996,-0.000741595420905128,-0.00203479889567149,3.04404098727673e-06,-0.00330459310366038,-0.00559127459232034,6.4571554421633e-05,-5.33807789251384e-05,-0.00152420654700336,-0.00950295734733597,1.99254147830175e-05,0.000142923871878864,5.47842052114333e-05,-0.00440023490744323,-0.00200567771158777,6.67557259665941e-05,-0.00455333543917646,-0.00153522364014602,-6.41312562876806e-06,-4.92327999896958e-05,-0.00440023490744323,-0.00200567771158777,-0.00443154556159708,-0.00286897087698623,1.41281955743366e-05,-4.76236352948689e-05,-0.00168575175569785
"5:16688654:A:T",5.87336223922819e-06,-0.0045944900424475,3.1348128253228e-06,-0.00856477220955831,2.25575903254338e-05,2.77901167908823e-05,5.27047553307014e-05,-1.15737492620838e-05,1.44866428293255e-05,-0.00438995140334253,0,2.65280829996328e-05,-0.00279372745254491,-2.93203655603591e-05,8.07742992314786e-06,-1.58940453225398e-05,1.09027686105989e-05,1.54402845442547e-06,2.06899323007548e-06,-4.07845553240804e-06,-8.09288572076738e-05,3.33358375321779e-05,-2.02680488659013e-06,-1.03670743758499e-05,0.175863220684329,-2.54763451312812e-06,-0.000138360792596437,1.02425782966264e-06,-1.98844849315094e-05,1.54402845442547e-06,-4.07845553240804e-06,5.33224939047727e-06,1.25014612439855e-05,-1.85535924321911e-05,2.08852489622657e-05,-1.22323874816033e-05,-2.54763451312812e-06,4.68273754332671e-05,-0.002239295934646,-3.76776652046829e-05,-1.08405650447452e-05,2.77901167908823e-05,-4.5784345807931e-06,1.02425782966264e-06,-8.44677912326119e-06,-5.56340535684541e-06,7.52894712441332e-06,0.000116959153089624,-1.76853896363127e-05,-0.00501126205534064,5.42437777486526e-05,-0.00112527652957617,-0.00433611940282219,-1.40255526721589e-05,-0.0028247165229498,-1.08405650447452e-05,-1.67990628288095e-05,3.33358375321779e-05,-0.000381353726894851,2.33547940151624e-05,-0.00347066902593252,-0.00038686275934996,0,4.22234668118193e-06,-2.21022633377643e-05,-1.32622940220983e-05,1.31415032713633e-05,-9.88868708695634e-06,-2.12295968884391e-05,-3.04868067004804e-05,2.02097898718279e-05,-0.000211401090385976,7.46712368489e-05,-0.000191638675672401,-0.00350620007390123,-5.07339320598987e-06,-0.00363665215154629,-2.21022633377643e-05,-5.56340535684541e-06,-3.57338067225044e-06,-0.00257767341251558,-1.08405650447452e-05,-9.88868708695634e-06,1.54402845442547e-06,8.63133472250865e-06,1.5106836697143e-05,9.19074014404941e-06,-0.000217248063884234,-0.00200182568039331,0,-0.000294337079181695,-3.73296645106436e-05,-0.006008842044956,-0.00429394715952025,-1.724452661378e-05,-0.00100036602951725,-3.73296645106436e-05,3.6758251447111e-06,-0.00129994243471288,-8.91692026350199e-06,-1.22323874816033e-05,0,-0.00165209463527294,4.68273754323789e-05,-0.00071622615478617,-1.724452661378e-05,2.08852489622657e-05,-0.0039824347362547,-3.06313312758988e-06,-0.00170634349716803,-0.00484413175451515,-3.73296645106436e-05,-6.52656580957256e-05,-0.00384216801644932,-2.60161964202865e-05,2.84301837005785e-05,-4.30332738030614e-05,-0.00389578038305594,-0.00337976502181281,-2.12295968866627e-05,1.48951050045198e-05,1.93436081339371e-05,-3.71637261142865e-06,-0.00137193150294035,-0.0036335873777622,-2.12295968884391e-05,-0.00203844354259175,8.95269623537587e-05,0.000171142966595816,-6.39635641697112e-06,-4.07845553240804e-06,3.25231671869375e-05,-2.42040329068161e-05,-4.07845553240804e-06,2.06899323007548e-06,-0.00916114572939097,-0.00131699503902816,-0.000205611532332561,-9.6882486655403e-07,-1.58940453225398e-05,-6.04854356645035e-06,2.39873398353296e-05,2.87798584945875e-05,6.26429954495578e-05,-0.000711834507955089,-0.00522347792532152,9.17558614412783e-05,-1.03670743767381e-05,-2.25316033066747e-05,1.45250897141125e-05,2.59922868650619e-06,3.66153751194531e-05,-0.00173575002257031,-0.00402337376321604,3.0245246955829e-05,8.63133472250865e-06,-0.00149093021769175,-1.76853896363127e-05,-0.00492933247540339,-6.04854356645035e-06,-0.0035834069095646,-0.00184805666066268,-0.00142043232323896,8.63133472250865e-06,-0.00329284111512784,1.28133107599737e-05,5.74833304982647e-05,-0.000247141868960021,-1.76853896363127e-05,3.44776806286973e-05,1.54402845442547e-06,-0.00953704628546337,-0.000170691158936087,-0.00356332177952812,-2.60161964193983e-05,2.09807774478321e-05,-0.0039708777161902,-0.00178978737181179,-0.00326731432506033,2.73455951544932e-05,-0.00631154982343585,2.6580773933027e-05,3.30874999479036e-05,-0.00250459177349338,1.5773275644726e-05,-3.06313312758988e-06,-2.42040329068161e-05,-0.00631154982343585,2.6580773933027e-05,-0.0024260336609343,3.50969715130489e-05,6.98580913827129e-06,-0.00101888740326128,4.8995796558593e-05
"5:16690882:G:T",-0.00212705837251015,-0.00105546604909268,1.50688048528025e-06,0.000102512926805076,9.00365814526793e-06,-0.00356989822535869,1.35162262902e-05,-0.00228856502451436,9.00138423087782e-06,-0.0046811663816726,0,1.00930513120545e-05,-0.00384614577801923,-0.00311473504728355,3.68850979182156e-06,-8.57760672445806e-06,4.87158305695345e-06,7.51447661428983e-07,1.00286335147359e-06,-2.02434457996503e-06,-0.00343520572974487,1.16813509896119e-05,-9.67712718846769e-07,-5.39888570827429e-06,-2.54763451312812e-06,0.224475849337697,-0.00119984493283987,5.0047597266456e-07,-1.09761986344381e-05,7.51447661428983e-07,-0.00248301872512346,2.51852280008791e-06,-0.00213133185701775,-1.0205938090202e-05,8.4498214665274e-06,-6.46746926946662e-06,-0.00223789010484676,1.3414103680276e-05,-0.000363383323410016,-2.30031688985832e-05,-0.00164110386574201,1.04253531345577e-05,-2.28642856292538e-06,5.0047597266456e-07,-0.00417624310199383,-2.80794073237445e-06,3.45138469004524e-06,-0.00308388131846904,-9.66942585378661e-06,-0.00825407743595985,1.3479154137741e-05,-0.00149570808893262,-0.00141533964041862,-0.00242500083964448,3.92553746220159e-06,-5.66792108180891e-06,-0.0015483548583104,1.16813509905001e-05,-1.8720440682074e-05,9.21601027847885e-06,5.0047597266456e-07,-2.54763451312812e-06,0,2.01221537210472e-06,-1.23884669038787e-05,-0.00104676301551532,-0.00187233758345684,-0.00263275886076375,-0.000112342938560772,-1.79325736038294e-05,-0.000686601108415452,-0.00204345520421967,9.83063892334712e-06,-0.00497700593276829,-0.00519910856558514,-2.54763451312812e-06,-0.000298662784850023,-0.00163138341488445,-2.80794073237445e-06,-1.76140566132688e-06,5.81894965900887e-06,-5.66792108180891e-06,-5.12860881318744e-06,7.51447661428983e-07,-0.0017559469509445,6.47481703985875e-06,-0.00178323689109483,-0.00225385800843103,-0.000245002873945133,0,-0.00539115092698417,-0.00104303744053436,-0.00143500920553796,-0.00250011262833283,-9.39881963724076e-06,8.25441374896485e-06,-0.00104303744053436,1.75940396918151e-06,-0.00289601221497637,-0.00243554687117342,-6.46746926946662e-06,0,-2.80794073237445e-06,1.3414103680276e-05,0.000371646325858066,-9.39881963724076e-06,8.4498214665274e-06,-0.00490985279380896,-1.49763637757871e-06,1.0083808010819e-07,-0.000364101918519211,-0.00104303744053436,-0.000456156767845606,-0.003334537155399,-0.00191743460158911,1.05879877123627e-05,-2.69449478418338e-05,6.36040300712182e-05,-0.000896654505480043,-1.18291379331836e-05,-0.000164521759650427,-0.00028188882185276,-0.000385683364699574,-1.15466894019534e-05,-0.00535084390767349,-0.00171945794722461,-0.00246151189385913,-0.00863539649775369,-0.000213555835597568,4.83261201917884e-05,-2.02434457996503e-06,-0.00375289198773121,-0.00107230394200819,-0.00248301872512346,1.00286335147359e-06,-0.00112498314356158,-0.00272917984222776,-0.00500286034808539,-4.3480222977621e-07,-8.57760672445806e-06,-0.000217683690546977,-0.00300485051833466,-0.001741149088752,-0.000216782429706797,-5.9357035500085e-06,-0.00590460385426983,-0.000690987067718751,-4.63992294799098e-05,-0.00157199285150078,6.25689931510465e-06,-0.00481001275898141,-0.00254538320430253,-0.00738503894034537,0.00017493327628948,-0.00179619825670319,3.92553746308977e-06,-0.00187442779183744,-9.66942585378661e-06,2.49982570643681e-07,-3.06732685029232e-06,-0.00433733960168059,-0.000488033142345579,-5.12860881318744e-06,3.92553746308977e-06,1.28845508129416e-05,5.59905194119636e-06,-0.000389875747917934,-0.000863788766636286,-9.66942585378661e-06,-0.00157233823388214,7.51447661428983e-07,-0.00506658165830665,-0.00169594473676771,-0.00220321410686886,-0.00060581897061418,-0.0020469252562183,-0.000856241776177491,4.71283228975494e-06,-0.00204464330936993,1.03602278693771e-05,-0.002650366372972,1.01312905247397e-05,-0.00153454275228881,-0.00342801501378709,-0.00204318367451162,-1.49763637757871e-06,-1.37546089957752e-05,-0.002650366372972,1.01312905247397e-05,-0.00108417472037381,-0.0089672584215581,3.21421246596287e-06,-1.32136331059129e-05,-0.000718610482008053
"5:16692010:A:G",-9.59473603279193e-06,-0.0105144645234421,-0.00881079940695528,-0.00902582040965516,-0.000624756226728085,-0.00028530141033567,-0.00355954375417289,-0.000694689541996585,-0.000255212469676191,-0.00228548153243002,0,-0.00526029306179598,-0.00657716732969371,-0.00281199015162104,-0.00187794951231712,-0.00179467144043999,-0.00835442710542011,-0.00470080490542291,-0.0021714671643327,-0.000647949384035229,0.000661983686376377,-0.00529402164411152,-5.1981081105712e-05,-0.00740301253108377,-0.000138360792596437,-0.00119984493283987,0.715081733303066,-0.00207545782481677,-0.00153525118199527,-0.00470080490542291,-0.00591770259985402,-0.00215338424675426,-0.00386057512783022,-0.000517020647946786,-0.00656297767284464,-0.000205959065098682,-0.00521581901397061,-0.00110386491476699,-0.0132092474624694,-0.000997986336065182,-0.000283218482528547,-0.0104424615982692,-0.00300338873583605,-0.00208210993970148,-0.000378066971527424,-0.00138617185332812,-0.000343381689842381,-0.00834680091094508,-0.00625611857090469,-0.00246523362985496,-0.00222810938923601,-1.18153113506381e-05,-0.00542881905355674,-0.00170669420279257,-0.000249028578928723,-0.00492662387430087,-0.00159298321710732,-0.000606969968138138,-0.000316651965118098,-0.00654294982756864,-0.00392092344935779,-0.00157834423721859,0,-0.00216115852975118,-0.00446323229429879,-0.00765764506338185,-0.00155573560885403,-0.00677642698373848,-0.00587936081904195,-0.000934495708900585,-0.00404930894429167,-0.00212812677798802,-0.00239287934984,-0.00195429588589269,-0.00752270753831974,-0.000501263853349698,-0.0094683878233135,-0.00882728957239198,6.78046882081063e-05,-0.00648871094511527,-0.00078093770857901,-0.00192675951733889,-0.00128050033145488,-0.0122446485185836,-0.0021139924148903,-0.000265672719026,-0.00227191358443779,-0.000688770862501631,-0.00941478711346422,0,-0.0030689149409393,-0.00887796455396916,-0.00408644849767281,-0.000651286886941271,-0.00139934757803761,-0.0050168054376849,-0.00887796455396916,-0.0118872525192062,-0.000862974656827387,-0.00039759536602979,-0.000205959065098682,0,-0.00138085413628719,-0.00226442529611814,-0.00259651587346132,-0.00139934757803761,-0.00121361486005611,-0.00714532443382465,-0.0103402135863675,-0.00376134144221618,-0.00957995446646454,-0.00887796455396916,-0.00516750575267144,-0.0100306263955003,-0.000520979911509567,-0.0034283147663321,-0.000670488368249789,-0.0041882964461224,-0.0087218895030472,-0.000366898221624723,-0.00167879347483657,-0.00580341896548697,-0.00526626500128291,-0.00178551774256652,-0.00681819742808498,-0.00919070702852265,-0.00141309898372555,-0.00643875171043273,-0.000205959065098682,-0.00284066489928625,-0.000887566437377529,-0.00834115705485816,-0.00608549493392552,-7.56821566003651e-05,-0.00103202700022997,-0.000580968882694766,-0.00543906132303063,-0.00280305311363538,-0.00313472879386989,-0.0083983175495832,-0.000289219232213256,-0.000458486634479005,-0.00739332193340481,-0.00586890606539692,-0.00148856190227598,-0.00776469780261912,-0.000385879863048721,-0.00319599874820486,-0.000329398252271851,-0.00868910123742239,-0.00905434026840712,-0.000412277629036062,-0.00398170841454171,-0.00436570216205823,-0.00371613609060306,-0.0021856767877555,-0.00299936368337494,-0.00600274110982113,-0.00428214913950509,-0.000289219232213256,-0.00834446108280451,-0.00362582806150691,-0.00770408023867919,-0.0021856767877555,-0.00206747291170073,-0.000276691890805481,-3.05536588252053e-06,-0.00257383328583849,-0.00658011685156712,-0.00844478364359524,-2.64096763586963e-05,-0.00843767977157661,-0.00598771092127492,-0.0112150071754846,-0.00241438881535005,-0.00154816983943462,-0.00201554713075458,-0.00166234767275242,-0.00772507848457593,-0.00446929181344213,-0.000842327447828417,-0.00716477941397375,-0.00267017221398991,-0.00292011870728581,-0.0084908324389672,-0.000962574296077712,-0.00358600637803796,-0.000842327447828417,-0.00716477941397375,-0.00186367106328555,-0.000805944868339736,-0.00475651053732662,-0.00561819745945158,-0.00220473121389064
"5:16692338:T:C",-1.38475191491239e-06,-0.00214140577399302,-6.97404381355682e-07,5.84343508425178e-06,-0.00287511086851211,-7.07888418460811e-06,-1.5997941022583e-05,2.19661055034237e-06,-3.42859396251782e-06,-3.52184148155743e-06,0,-6.69260055286003e-06,1.56303570086891e-07,5.02268269020334e-06,-1.81071460403359e-06,2.98094191641951e-06,-2.50717378147414e-06,-3.39750687139428e-07,-4.56918383129334e-07,8.20164051340555e-07,9.74981291257393e-06,-8.8017817176933e-06,3.90129472727097e-07,2.01919550146812e-06,1.02425782966264e-06,5.0047597266456e-07,-0.00207545782481677,0.154843475232094,3.61273129012574e-06,-3.39750687139428e-07,8.20164051340555e-07,-1.20435531059115e-06,-2.96575224911777e-06,3.43863645113629e-06,-5.0809618699077e-06,2.36814160015086e-06,5.00475974440917e-07,-1.35306892143916e-05,-0.00211035425051076,6.09510788063261e-06,2.10868806149733e-06,-7.07888418460811e-06,9.23086590276512e-07,-2.24571349072278e-07,-0.00263803988408995,1.12371728366867e-06,-1.67850808363568e-06,9.77746024766191e-06,3.29129625331603e-06,-1.50697484491147e-05,-1.64792812755721e-05,7.86045541634195e-06,-0.00251347006235036,2.64800032923063e-06,-1.94521041141371e-06,2.10868806149733e-06,3.13881217905987e-06,-8.8017817176933e-06,5.34595764545287e-06,-5.79260678978955e-06,-2.24571349072278e-07,-0.00347066902593252,0,-9.46414100866377e-07,3.97514868755167e-06,7.17199515509748e-06,-3.13123930339998e-06,1.92814049881918e-06,3.83407518800283e-06,5.18852672204417e-06,-0.00649628045911399,-0.00265058480804115,-2.60328486039185e-05,-0.00782004367106559,-2.54573837610295e-05,1.02425782966264e-06,-0.00174020604659564,3.97514868755167e-06,1.12371728366867e-06,-0.00272604528785525,-3.0918953148884e-06,2.10868806149733e-06,1.92814049881918e-06,-3.39750687139428e-07,-1.94521041141371e-06,-3.54367719257453e-06,-2.08204868901163e-06,-0.00260976444368932,-0.00282069910679006,0,-5.10742792938501e-05,6.05149823851292e-06,-0.00852863825887162,4.12605207600336e-06,3.21571201933324e-06,-4.91064531615848e-06,6.05149823851292e-06,-8.20818850222338e-07,-9.26624141781573e-05,1.74119570406361e-06,2.36814160015086e-06,0,1.12371728366867e-06,-1.35306892143916e-05,-0.00384695370970256,3.21571201933324e-06,-5.0809618699077e-06,-0.0039766260682299,6.08901212117985e-07,-7.14034724680346e-08,9.74327899605498e-06,6.05149823851292e-06,-1.8819179596008e-05,-1.74906010066422e-05,4.53447765913495e-06,-7.2771241379499e-06,-0.00170043567294975,-0.0075623797280695,4.20663267775012e-06,3.83407518711465e-06,-0.0029780817121754,-4.69458785001819e-06,-0.00250782682917983,3.76162294646321e-06,-0.00762491934696907,3.83407518800283e-06,-0.00274039872980758,-3.46923397662735e-05,2.36814160015086e-06,-0.00258317334445923,-0.00284125737436636,-0.0022178622206539,4.30683924879105e-06,8.20164051340555e-07,-4.56918383129334e-07,-0.00195349486554885,-0.00307814337645596,5.00475974440917e-07,1.6348861020532e-07,2.98094191641951e-06,1.22150336778759e-06,-5.97847518868377e-06,-7.49099734687064e-06,-0.00220215132897561,2.19665372735989e-06,-0.00269735580653574,-0.00187191410911591,-0.00235370387647915,4.0438296879941e-06,-3.39048759556704e-06,-0.00244024523752095,-0.0019983922490372,9.22981198137052e-07,-0.00667059526673519,-7.95555625199285e-06,-1.94521041052553e-06,2.87003783228101e-06,3.29129625331603e-06,-1.11335618058206e-07,1.22150336778759e-06,-9.03189188417031e-06,6.17860945339999e-06,1.92814049881918e-06,-1.94521041052553e-06,-1.13250721218705e-05,-2.94637584907775e-06,-1.79255592627214e-05,-0.00255830300333404,3.29129625331603e-06,-9.22956943139042e-06,-3.39750687139428e-07,-0.00777605774847867,-0.00283729193962223,6.27227680283227e-06,4.53447765824677e-06,-5.21077658532931e-06,-0.00436621570184137,-0.00256481144839427,7.22691574583934e-06,-0.00272285891751789,-0.000257358555169063,-6.7561190597587e-06,-8.76780179748238e-06,-0.0040412262542997,-3.82633718221115e-06,-0.00265058480804115,-0.0014253584782864,-0.000257358555169063,-6.7561190597587e-06,-0.00397853231896761,-9.79686220059506e-06,-1.5485391680059e-06,4.17762305993108e-06,-1.43799231242525e-05
"5:16692674:C:A",-0.00437576058067801,-0.00496835465271017,-0.0023487088149361,-0.00602336972661677,2.5660502455338e-05,-0.00135470794268056,-0.00401479627623758,-4.77305185206944e-05,1.60932872246278e-05,-2.47225495284553e-05,0,9.8677800853153e-05,-0.00148945505769671,-0.000116315493872143,3.01950652916716e-05,-0.00137473698946344,4.01165441541451e-05,5.44527983503684e-06,-0.00832005052664453,-0.00280788806492005,-0.00301665857879296,0.000123158775653387,-9.14041284172384e-06,-4.08272881449179e-05,-1.98844849315094e-05,-1.09761986344381e-05,-0.00153525118199527,3.61273129012574e-06,0.257965972102519,5.44527983503684e-06,-0.00163058821309292,1.87850561994551e-05,4.39451714013828e-05,-7.22388450871136e-05,-0.00291365057614179,-4.74018061336068e-05,-0.0016890060302206,0.00017057396664022,-0.00704715690425228,-0.000149114976339959,-0.00296005305978575,-0.00135470794268056,-0.00158723378515635,-0.00270492510268916,-0.000154754977731208,-2.16137987898435e-05,-0.00293350121942737,-0.00158669033407399,-6.91893582498437e-05,-0.000460213049715552,-0.00026900229673732,-0.000475023049893331,-0.00286208837797908,-0.00318811079574566,-0.00203769559301392,-4.24958756708449e-05,-6.60764581938977e-05,0.000123158775653387,7.15767253938182e-05,8.64878640314259e-05,3.61273129012574e-06,-1.98844849315094e-05,0,1.48797042180959e-05,-0.00318574868022292,-5.94131153075494e-05,-0.000401117501457549,-0.00297775005724521,-0.00141174790555088,-0.000850093956298537,-0.00075033580545103,-0.00167594005435223,-0.000563001394029428,-9.26670866712165e-05,-0.00231440034080865,-1.98844849315094e-05,3.79354121911035e-05,-0.00132639513805444,-2.16137987898435e-05,-1.45928628052516e-05,5.03383487044928e-05,-0.000320428535657058,-0.000168779601357194,5.44527983503684e-06,3.21417735786866e-05,5.63886381241829e-05,-0.00206336900470028,-0.00342629260014515,-0.00047485850488016,0,-0.00162939334030199,-0.000147931402241674,0.000134012241012726,-0.00169246307048976,-6.7640955286663e-05,7.58109412792862e-05,-0.000147931402241674,1.29557493879773e-05,-0.000475196937281375,-0.000121041823452295,-4.74018061336068e-05,0,-2.16137987898435e-05,-0.00115065856608343,-0.00210483777953119,-6.7640955286663e-05,-0.00141308026860276,-0.00481236343026747,-1.27935938447621e-05,-0.00171974845859069,-0.000905091536212765,-0.000147931402241674,-0.0035206556771783,-0.000180981141415515,-0.000169189850871554,-0.00144944194107488,-0.00373775150985622,-0.00252066893991287,-0.00405514002564189,-0.00503839829832842,-0.000962596683896422,-0.00196745107659435,-0.00374410809534442,-0.00294280228505084,-0.000586224513021261,-0.00180113887819466,-0.000694324491981035,-0.00341447261423333,-4.74018061336068e-05,-0.00256241342624985,-1.63742651020371e-05,-0.00725368933609571,-9.5022386264354e-05,-0.00163058821309292,7.29560649048722e-06,-0.00754102475285867,-0.00137473698946344,-0.0016890060302206,-0.00523645871777756,-0.00293681805762258,-2.33262388178446e-05,8.86817627723246e-05,6.24680465071137e-05,-0.00544506097714503,-4.414766154337e-05,-0.00173539387822741,-0.0027074645259626,-0.00284099177056341,-8.91857831666343e-05,-0.00288572845212176,-0.00435052987874673,-0.000534223186170024,-0.001255615914733,-0.000136772250997286,-0.00697437836551629,-0.00195347057668727,-0.00188898939115223,-6.91893582498437e-05,1.79771770181247e-06,-2.33262388178446e-05,-0.000319961330823126,0.000207231088589666,-0.00146116038150534,-0.00195347057668727,-0.00118162024462087,4.83583001189558e-05,-0.00341328111329542,0.000250596723414986,-6.91893582498437e-05,-4.18584701167291e-05,5.44527983503684e-06,-0.000546987314348435,0.000114193112092487,-1.04449400151196e-05,-0.000104894356128149,-0.000738458083294979,-0.00119816304193732,-0.0060430202870938,-0.000569755679681094,-0.00438923071886332,7.57512430151763e-05,-0.000733296213085488,-0.00219600466783909,-0.00614989640316432,-0.00381552942706165,-1.27935938447621e-05,-9.5022386264354e-05,7.57512430151763e-05,-0.000733296213085488,-0.00585663131273684,-0.000490697710596066,2.63563013946921e-05,-0.00109787337475886,0.000177802685368711
