"","10:26223315:G:A","10:26224022:G:C","10:26224097:A:C","10:26226598:C:T","10:26235101:T:C","10:26237380:C:T","10:26242309:A:G","10:26244089:T:A","10:26244660:T:A","10:26245366:C:T","10:26246866:G:A","10:26250566:G:A","10:26252454:G:A","10:26254888:T:C","10:26257740:A:G","10:26261368:G:A","10:26263199:C:G","10:26263453:C:A","10:26265265:A:G","10:26265941:T:A","10:26266144:G:A","10:26268849:C:G","10:26270756:G:A","10:26271166:G:A","10:26271744:T:C","10:26273569:G:A","10:26275270:C:T","10:26279307:A:G","10:26280250:A:G","10:26280561:T:G","10:26280724:G:C","10:26281195:C:G","10:26283071:G:A","10:26283418:A:C","10:26283769:C:T","10:26283933:C:T","10:26284060:C:T","10:26284383:C:G","10:26284867:A:T","10:26287848:A:T","10:26288395:G:A","10:26289007:C:G","10:26289146:T:C","10:26290014:G:T","10:26290065:C:G","10:26291348:T:A","10:26291510:A:G","10:26293973:G:A","10:26296416:C:T","10:26296950:G:A","10:26296962:A:G","10:26297858:G:A","10:26297871:G:A","10:26298783:T:C","10:26302254:G:A","10:26302982:A:G","10:26304072:A:C","10:26306172:G:A","10:26306264:G:A","10:26306317:A:C","10:26307187:T:G","10:26307347:A:G","10:26314305:G:A","10:26314786:A:T","10:26318901:G:A","10:26322783:T:C","10:26323313:C:T","10:26325365:T:A","10:26327423:C:G","10:26328209:G:A","10:26332135:G:A","10:26333940:G:A","10:26335476:C:T","10:26336357:G:A","10:26342998:C:T","10:26344948:T:G","10:26346600:G:A","10:26347406:T:A","10:26349013:T:C","10:26349057:G:A","10:26349136:G:A","10:26349394:C:T","10:26349517:A:G","10:26351168:C:T","10:26351867:G:A","10:26353078:G:C","10:26355195:A:G","10:26355228:A:G","10:26359646:G:A","10:26359709:G:A","10:26360137:A:G","10:26360165:C:T","10:26363633:G:C","10:26366648:T:C","10:26367446:C:A","10:26368152:C:T","10:26369327:A:G","10:26371171:G:T","10:26373402:T:C","10:26374115:A:C","10:26375073:A:C","10:26375526:T:C","10:26377822:T:G","10:26378111:G:C","10:26379898:G:T","10:26382598:C:T","10:26386607:T:C","10:26387369:C:G","10:26390107:G:T","10:26390605:G:A","10:26395920:T:C","10:26399039:A:C","10:26400978:G:A","10:26402174:C:T","10:26402321:C:A","10:26403877:A:G","10:26404209:A:G","10:26406062:G:A","10:26407926:T:G","10:26412938:C:T","10:26413070:A:T","10:26418377:C:T","10:26419885:T:C","10:26420669:C:T","10:26422218:T:C","10:26423096:G:T","10:26425401:C:T","10:26426444:C:T","10:26427238:C:T","10:26432030:C:T","10:26436014:A:G","10:26438411:G:A","10:26453823:C:T","10:26455090:G:A","10:26461257:G:A","10:26461561:T:C","10:26463052:C:A","10:26463443:C:T","10:26465552:G:A","10:26467932:A:G","10:26474320:G:T","10:26476765:G:T","10:26479147:T:G","10:26481386:G:A","10:26483045:T:C","10:26483504:A:G","10:26486140:A:G","10:26487236:G:A","10:26487417:C:T","10:26487829:T:G","10:26501385:G:A"
"10:26223315:G:A",0.0625283587014716,-0.00167639976976464,1.31319456313506e-05,-0.0035023775929055,-0.00205059622519421,-0.00221357216235596,2.47810249742741e-06,-0.0021064584937811,6.56974935520083e-06,-9.37251535404471e-06,-1.36123969376456e-05,1.41061566205636e-05,-7.41033550166748e-06,-5.11721772245011e-06,-1.05899692890432e-05,9.25845221910748e-06,-0.00212598769192773,-5.14016636365966e-07,-1.71062630798247e-05,3.31255421670562e-06,-4.61481943663244e-05,5.99387307875787e-06,-0.00206834766112696,4.7330999572992e-06,-9.37251535404471e-06,4.37155594568139e-06,-2.14350637772753e-06,-3.14406621626517e-06,-0.00236582674334951,-0.00206834766112696,-0.00215528059365777,-2.14350637772753e-06,9.25845221910748e-06,-7.93025695156047e-06,5.99387307875787e-06,-0.00220398543996048,-5.14016636365966e-07,3.04404098727673e-06,1.47662916116786e-05,4.84946335355119e-06,-6.72329631967727e-07,-1.09837022446158e-05,6.09781872373816e-06,-9.37251535404471e-06,-0.0021260929154705,-4.61481943663244e-05,-0.00206834766112696,-5.34901708793001e-06,1.23522016881594e-06,-7.41033550166748e-06,-1.71062630798247e-05,4.37155594568139e-06,-0.00215528059365777,-9.37251535404471e-06,5.99387307875787e-06,-2.14350637772753e-06,-1.71062630798247e-05,-0.00206834766112696,-0.00014319105506555,-0.0021260929154705,-5.11721772245011e-06,-1.09837022446158e-05,-1.4814755492587e-05,-3.30546471971616e-06,-8.74498692304826e-06,-0.00204528084985522,-7.41033550166748e-06,1.94407427933641e-06,1.29619585482743e-05,-1.4814755492587e-05,1.14946134646132e-05,1.29619585482743e-05,-1.93342321388457e-05,8.3537874226991e-06,3.31255421670562e-06,-1.48147554934752e-05,-0.00149194306191269,3.17945616767901e-06,1.20645705612432e-05,-6.7806798572434e-05,-1.48147554934752e-05,1.4740271351954e-05,3.31255421670562e-06,1.20645705612432e-05,-1.48147554934752e-05,1.4740271351954e-05,3.04404098727673e-06,-3.85190312508499e-05,1.4740271351954e-05,-0.00149194306191269,4.37155594568139e-06,1.20645705612432e-05,1.4740271351954e-05,-0.00149194306191269,3.31255421670562e-06,3.04404098727673e-06,-5.14016637254144e-07,-1.36123969376456e-05,-0.00219884121821412,8.9921114936331e-06,-7.41033550166748e-06,1.29458769286828e-05,-1.09837022446158e-05,-1.20437936796947e-05,-0.00206052791313382,1.4740271351954e-05,3.4433877154072e-06,-5.14016637254144e-07,-0.00154102338113038,-6.7806798572434e-05,-0.0035023775929055,4.71692887593633e-06,1.14946134646132e-05,-5.14016637254144e-07,8.9921114936331e-06,-7.41033550166748e-06,-0.00154102338113038,-6.06917058920686e-06,1.44079221140458e-05,-5.11721772245011e-06,9.25845221910748e-06,-3.30546471971616e-06,-5.11721772245011e-06,9.31376824198082e-06,-2.76440301512082e-05,-5.14016637254144e-07,-0.00154102338113038,-0.00374138073588792,3.04404098727673e-06,-2.73349665125266e-06,-3.14406621626517e-06,1.08554602853417e-05,-0.00243940410490495,3.04404098727673e-06,-0.00154102338113038,1.21345624908287e-05,-8.71670333246755e-07,9.06045324278182e-06,-1.36123969376456e-05,-2.14935302658148e-05,7.51447661428983e-07,8.85174653664222e-06,-5.14016637254144e-07,-1.46652259669366e-06,-1.97303791162895e-05,-2.53962025098531e-06,-0.00039875958345359,1.07676773186682e-06,3.04404098727673e-06,1.07521884915585e-05,6.49582044420782e-06
"10:26224022:G:C",-0.00167639976976464,0.13015057052187,0.000555160383751918,-0.000204873480765144,4.1769277459025e-05,-0.00105472785389971,2.14981344113241e-05,-0.00265002397275182,-0.00165457575463357,-0.000246265249291611,-0.00110284069978661,-0.00211184880816884,-0.000375930793944157,-0.000702118109599859,-0.000636924890290658,0.000559639945824308,-0.000819690223620828,-0.00111552195498099,-0.00133068602972664,-0.00173966985490281,-0.00101296447442678,-0.00158298623305519,-0.00173785122745507,-6.07590448531425e-05,-0.000246265249291611,-0.00197036972175724,0.000467889306689173,-0.000360558456226734,-0.000612462596889962,-0.00173785122745507,-0.000783072740697666,0.000467889306689173,0.000559639945824308,-0.00113602938090196,-0.00158298623305519,2.72585843905659e-05,-0.00111552195498099,-3.50012061689498e-05,0.000602189373340778,-0.00159663227874951,-0.000232422517576047,-0.00121707597464749,-0.00386748979945928,-0.000246265249291611,-0.00081588634661145,-0.00101296447442678,-0.00173785122745507,-0.000286756806906041,4.86567826589734e-05,-0.000375930793944157,-0.00133068602972664,-0.00197036972175724,-0.000783072740697666,-0.000246265249291611,-0.00158298623305519,0.000467889306689173,-0.00133068602972664,-0.00173785122745507,-0.000408737810758453,-0.00081588634661145,-0.000548030938601229,-0.00206290517171048,-0.00129219255926127,-0.00159592027469291,-0.000756988230823374,-0.000193764177212508,-0.000375930793944157,-0.0014232954734501,-5.71031647567111e-06,-0.00129219255926127,-0.000854405988366835,-5.71031647567111e-06,-0.00074790424276383,-0.00144519812999988,-0.00173966985490281,-0.00127048734235835,-3.64205490388514e-06,-0.00191441707284135,-3.40042027420218e-05,-0.00405736438852511,-0.00127048734235835,-0.00167847639146057,-0.00173966985490281,-3.40042027420218e-05,-0.00127048734235835,-0.00167847639146057,-3.50012061689498e-05,-0.00188394171550232,-0.00167847639146057,-3.64205490388514e-06,7.18774622407992e-05,-3.40042027420218e-05,-0.00167847639146057,-3.64205490388514e-06,-0.00173966985490281,-3.50012061689498e-05,-0.00111552195498099,-0.00110284069978661,3.60159516681335e-05,-0.000989394722882508,-0.000375930793944157,-6.53893846491727e-06,-0.00121707597464749,-0.000410315022924657,-5.24292571197904e-05,-0.00167847639146057,-0.00458571066191027,-0.00111552195498099,0.00275933543275197,-0.00405736438852511,-0.000204873480765144,-6.06835986420862e-05,-0.000854405988366835,-0.00111552195498099,-0.000989394722882508,-0.000375930793944157,0.00275933543275197,-0.000521166674078977,-0.00191716879379555,-0.00345693827887583,0.000559639945824308,-0.00159592027469291,-0.000548030938601229,0.000201503851914087,-0.00172102593346235,-0.00111552195498099,0.00275933543275197,-0.000245094751465835,-0.00202582219902325,-0.000153514133979904,-0.000360558456226734,-0.00251776081146105,0.000112361822462326,-3.50012061689498e-05,0.00275933543275197,-0.000827390934873939,-6.53604061469082e-05,-0.0028172880293269,-0.00170629025914693,-0.000348739395280351,1.01439115116619e-05,-0.00120246008881697,-0.00111552195498099,-0.00118970940312924,-0.00147244031777305,-0.000718083992546248,-0.00487900950778641,3.60159516681335e-05,-0.00202582219902325,-0.000638215326651981,-0.0011313792300891
"10:26224097:A:C",1.31319456313506e-05,0.000555160383751918,0.172477925765228,-0.00231942416512343,-0.000553127908207607,0.00163657887283986,-0.00326829473209234,-0.00598826323956692,-0.000155880946860698,-0.00314013460070761,-0.000312151815868411,-0.00390237460151166,-0.00128108331879151,0.000170059498870501,-0.00690419766219197,-0.000691716582455371,0.00151332998878617,1.31319456322387e-05,2.32728949622896e-06,-0.000147374660891764,0.000356175766739852,-0.00160030914170584,-0.00646743510149106,-0.000222839613003956,-0.00314013460070761,-0.00299718281718242,-0.000199990223338276,0.000102300106441966,-0.00702813348676568,-0.00646743510149106,0.00129187267705611,-0.000199990223338276,-0.000691716582455371,-0.0013418590852865,-0.00160030914170584,-0.00065472639695674,1.31319456322387e-05,-0.00225008236114199,0.000485952918158894,-0.00120368994725961,-0.00168342561059198,2.51869560576878e-05,-0.000849306269507188,-0.00314013460070761,0.00151529911921156,0.000356175766739852,-0.00646743510149106,-0.00242756805664435,-0.002836937804374,-0.00128108331879151,2.32728949622896e-06,-0.00299718281718242,0.00124757662065056,-0.00314013460070761,-0.00160030914170584,-0.000199990223338276,2.32728949622896e-06,-0.00646743510149106,-0.00152926754738658,0.00151529911921156,-0.000100988266123814,-0.00256835579352277,-2.33916260468092e-05,-0.000355155107615523,0.000268377680831655,-0.000344712175124329,-0.00128108331879151,0.000326188231455582,-0.00222953223591205,-2.33916260468092e-05,0.000246763264603267,-0.00222953223591205,-0.00672673415564962,-0.000197127394250707,-0.000147374660891764,2.5327519659335e-06,0.00057099542507455,-0.000383162478591714,-0.00213991543769776,6.46712015139883e-06,2.5327519659335e-06,0.000335112849271013,-0.000147374660891764,-0.00213991543769776,2.5327519659335e-06,0.000335112849271013,-0.00225008236114199,-0.000151857639481445,0.000335112849271013,0.00057099542507455,-0.00299718281718242,-0.00213991543769776,0.000335112849271013,0.00057099542507455,-0.000147374660891764,-0.00225008236114199,1.31319456322387e-05,-0.000312151815868411,-0.000189130618080569,-0.00118237335173177,-0.00128108331879151,-0.00223054027131697,2.51869560576878e-05,-3.97277643386929e-05,-0.000476646264196745,0.000335112849271013,-0.000150988527600759,1.31319456322387e-05,-0.000205470411635211,6.46712015139883e-06,-0.00231942416512343,-0.000517700557707279,0.000246763264603267,1.31319456322387e-05,-0.00118237335173177,-0.00128108331879151,-0.000205470411635211,0.000191333041173358,0.00111069881660963,-0.00152326455742813,-0.000691716582455371,-0.000355155107615523,-0.000100988266123814,-0.00218649299367479,-0.00627790939689188,1.31319456322387e-05,-0.000205470411635211,-0.00212258375835983,-0.00143796188859024,9.25143856340682e-05,0.000102300106441966,-0.00159727594055203,-0.0122634739966072,-0.00225008236114199,-0.000205470411635211,-0.00792717102434493,-3.78846868231975e-05,-0.00119928608922759,-0.00300125394607242,0.00206348161418823,-4.73087568950703e-05,-0.00243728654535413,1.31319456322387e-05,-0.000236963686274017,7.96244732752527e-05,-0.00296618728190534,0.000460552370640244,-0.000890364787740516,-0.00143796188859024,0.00224644024231502,-0.000932249804087348
"10:26226598:C:T",-0.0035023775929055,-0.000204873480765144,-0.00231942416512343,0.142228477689202,-0.00111676742389566,-0.00256450118715268,-2.76587667658035e-05,-0.000526912194653839,-0.00108149962104953,7.65792582884117e-05,0.00010837574599698,-0.000473455912556986,6.44395097708639e-05,4.59351775017325e-05,-0.00475132062551609,-0.000120299352297515,-0.00261434308314801,4.61469325241382e-06,0.000122602999080179,-3.61465709710629e-05,-0.00285286861569656,-7.08858157070225e-05,-0.000579737385474566,-5.37604202222042e-05,7.65792582884117e-05,-4.97872455724746e-05,2.04679613950987e-05,2.87357713304459e-05,-0.00493374251561995,-0.000579737385474566,-0.00280591291012566,2.04679613950987e-05,-0.000120299352297515,6.8145799775543e-05,-7.08858157070225e-05,-0.00121981942261851,4.61469325241382e-06,-3.33777968686277e-05,-0.00129689435997271,-5.50563173939977e-05,-0.00124261222980948,-0.00245777888504684,-7.2121462386221e-05,7.65792582884117e-05,-0.00261490626236238,-0.00285286861569656,-0.000579737385474566,-0.00275469101175574,-1.33980358771879e-05,6.44395097708639e-05,0.000122602999080179,-4.97872455724746e-05,-0.00280591291012566,7.65792582884117e-05,-7.08858157070225e-05,2.04679613950987e-05,0.000122602999080179,-0.000579737385474566,-0.00210838836713734,-0.00261490626236238,4.59351775026207e-05,9.03458357539577e-05,0.000107133839079232,-0.00140488522685267,7.38490121827695e-05,-0.00229551224327018,6.44395097708639e-05,-0.00298870839170906,-0.00350527626477959,0.000107133839079232,-0.00307258686389744,-0.00350527626477959,-0.0038833206770521,-0.00105628041694494,-3.61465709710629e-05,0.000107133839078344,-0.000195687800550459,-3.47695462057374e-05,-0.00354658423219156,-0.00171427326743956,0.000107133839078344,-0.00215330767203614,-3.61465709710629e-05,-0.00354658423219156,0.000107133839078344,-0.00215330767203614,-3.33777968686277e-05,-0.000181496299236805,-0.00215330767203614,-0.000195687800550459,-4.97872455724746e-05,-0.00354658423219156,-0.00215330767203614,-0.000195687800550459,-3.61465709710629e-05,-3.33777968686277e-05,4.61469325063746e-06,0.00010837574599698,-0.00117082652846001,-0.000116397215413677,6.44395097708639e-05,-0.00352136053737251,-0.00245777888504684,8.77761977324809e-05,-0.00110220182478926,-0.00215330767203614,-3.75091018476326e-05,4.61469325063746e-06,-0.000191620844336882,-0.00171427326743956,0.00353040622048262,-0.00114931247968997,-0.00307258686389744,4.61469325063746e-06,-0.000116397215413677,6.44395097708639e-05,-0.000191620844336882,5.31172933513346e-05,-0.00222139899131335,4.59351775026207e-05,-0.000120299352297515,-0.00140488522685267,4.59351775026207e-05,-0.00353333883108053,0.000188467906655276,4.61469325063746e-06,-0.000191620844336882,0.00245527255207989,-3.33777968686277e-05,2.53775089618102e-05,2.87357713304459e-05,-0.00281497376546014,-0.00336401428905919,-3.33777968686277e-05,-0.000191620844336882,-0.00492515850564068,-0.00144073429733282,-0.00041185633619456,0.00010837574599698,-0.00626236732259233,-8.8529087101108e-06,-0.000114379586099389,4.61469325063746e-06,-0.00333177199483004,0.000137102510955778,-0.000130464728250956,-0.00250000201290224,-0.00117082652846001,-3.33777968686277e-05,-0.0012320621347115,-7.69303471299665e-05
"10:26235101:T:C",-0.00205059622519421,4.1769277459025e-05,-0.000553127908207607,-0.00111676742389566,0.129686351734996,-0.00168174562887202,-0.00269301711803749,-0.000545895586849809,-0.00129081172066225,-0.00184889389673248,0.000195515996308515,-0.00121530067724684,0.000118182898077634,8.44664705414999e-05,-0.00327132922041606,-0.00156723407436576,-0.00179848410555339,7.98134693269503e-06,-0.00243843594060777,-6.97442205144228e-05,-0.000450999750033709,-0.000139393111386887,-0.000576540816542348,-0.0034601215021226,-0.00184889389673248,-0.00298077985158685,3.82241195131527e-05,-0.00158128235770505,-0.00308493155483891,-0.000576540816542348,-0.00117630228036791,3.82241195131527e-05,-0.00156723407436576,-0.00144377349931091,-0.000139393111386887,-5.06731429146257e-05,7.98134693269503e-06,-6.4956565360319e-05,-0.000711839029641226,-0.000106893992479762,-0.00233142289424304,0.000163803318741884,-0.00332624325243991,-0.00184889389673248,-0.00122541194661929,-0.000450999750033709,-0.000576540816542348,8.74905720245067e-05,-0.00164160676481995,0.000118182898077634,-0.00243843594060777,-0.00298077985158685,-0.00117630228036791,-0.00184889389673248,-0.000139393111386887,3.82241195131527e-05,-0.00243843594060777,-0.000576540816542348,-0.00163118196141099,-0.00122541194661929,8.44664705423881e-05,-0.00278642456520384,-0.000187850155984215,-0.000681321298829474,-0.00163304218351801,-0.00328666667065658,0.000118182898077634,-0.000317643518794597,-0.00107855613779151,-0.000187850155984215,-0.000290619817732818,-0.00107855613779151,-0.00338230857288835,-0.00143825617532833,-6.97442205144228e-05,-0.000146405330202271,0.000296038648584407,-6.73629381040541e-05,-0.00104834787262487,0.000138940667083531,-0.000146405330202271,-0.000529471703758944,-6.97442205144228e-05,-0.00104834787262487,-0.000146405330202271,-0.000529471703758944,-6.4956565360319e-05,-0.00570241836858987,-0.000529471703758944,0.000296038648584407,-0.00298077985158685,-0.00104834787262487,-0.000529471703758944,0.000296038648584407,-6.97442205144228e-05,-6.4956565360319e-05,7.98134693358321e-06,0.000195515996308515,-0.001667781719914,-0.000925356870539851,0.000118182898077634,-0.00107820836135808,0.000163803318741884,-0.000123257176244174,0.000359241175456049,-0.000529471703758944,-7.21007952009245e-05,7.98134693358321e-06,0.000237526618958483,0.000138940667083531,-0.00111676742389566,-0.00154244756653288,-0.000290619817732818,7.98134693358321e-06,-0.000925356870539851,0.000118182898077634,0.000237526618958483,-0.00181632785704533,-0.000543751143103677,8.44664705423881e-05,-0.00156723407436576,-0.000681321298829474,8.44664705423881e-05,-0.000986974847277278,0.000329036661527837,7.98134693358321e-06,0.000237526618958483,-0.00103243346570459,-6.4956565360319e-05,4.66826842453472e-05,-0.00158128235770505,-0.000548461276829393,-0.0013373023652905,-6.4956565360319e-05,0.000237526618958483,-0.000903403746333797,-0.00192084463081166,-0.00093335462968902,-0.00325240629200607,-0.00151034907890013,-0.00232394398840796,-0.00111531696543032,7.98134693358321e-06,-0.00121675482276196,-9.38524444000777e-05,-0.000311976029989669,-0.000954810913393445,-0.001667781719914,-6.4956565360319e-05,-0.000469426799234007,-0.000149710969639116
"10:26237380:C:T",-0.00221357216235596,-0.00105472785389971,0.00163657887283986,-0.00256450118715268,-0.00168174562887202,0.288471914445666,-0.000164663214050176,0.000320416742498608,-0.000663144730180143,-0.000397365555367291,0.000801152480459422,0.000958962611979253,-0.00242540470254582,-0.00130374126052946,1.97771806886848e-06,-0.00396504252214314,-0.00223030316984119,-0.00479540436054648,-0.00238881929605617,-0.00415824762390482,-0.00152645084621517,0.000321249602546647,-0.0014480574351321,-0.000990265806832369,-0.000397365555367291,0.000184311624181088,-0.000464744049441634,0.000188249608886082,-0.000336055374384081,-0.0014480574351321,-0.00604542083798787,-0.000464744049441634,-0.00396504252214314,-0.00235814024223835,0.000321249602546647,-0.00181749598710734,-0.00479540436054648,-0.00153170676528536,0.00214744867883709,0.000381801489709233,-0.00936524892746604,-0.000662523307743967,-0.00120686427432348,-0.000397365555367291,-0.00215734465240747,-0.00152645084621517,-0.0014480574351321,-0.00811303743585157,-0.000477225431042783,-0.00242540470254582,-0.00238881929605617,0.000184311624181088,-0.00604542083798787,-0.000397365555367291,0.000321249602546647,-0.000464744049441634,-0.00238881929605617,-0.0014480574351321,-0.000714901527647527,-0.00215734465240747,-0.00144240030514631,0.000125555768056174,-0.00402244606316327,-0.000147328524326085,-0.00799376813024288,-0.00246929863721901,-0.00242540470254582,-0.00330600542322568,-0.00715112739264834,-0.00402244606316327,-0.00102915816122096,-0.00715112739264834,-0.000576892518139527,-0.000732482540767521,-0.00415824762390482,-0.00396491257751386,-0.00320117019742305,-0.00136302095638996,-0.00465312944899265,-0.00195488151574175,-0.00396491257751386,0.00189068970542916,-0.00415824762390482,-0.00465312944899265,-0.00396491257751386,0.00189068970542916,-0.00153170676528536,-0.0062858840020259,0.00189068970542916,-0.00320117019742305,-0.000458765052535171,-0.00465312944899265,0.00189068970542916,-0.00320117019742305,-0.00415824762390482,-0.00153170676528536,-0.00479540436054648,0.000801152480459422,-0.00268425185466903,0.00114854268669173,-0.00242540470254582,-0.00444494951495145,-0.000662523307743967,-0.00345034664489052,-0.00198321849524463,0.00189068970542916,-0.00181736738097715,-0.00479540436054648,-0.00283735063644608,-0.00195488151574175,-0.00256450118715268,-0.00134684074365499,-0.00102915816122096,-0.000196796636868335,0.00114854268669173,-0.00242540470254582,-0.00283735063644608,-0.00681395446460531,-0.000398271873825351,0.000335925194427489,-0.00396504252214314,-0.000147328524326085,-0.00144240030514631,-0.00514911958559949,-0.00481951047668794,-0.000196796636868335,-0.00283735063644608,-0.00156006881133663,0.000152614118375638,-0.00639226276017446,0.000188249608886082,-0.00578805727014897,-0.00133600890140517,-0.00153170676528536,-0.00283735063644608,-0.00603055983322642,-0.00164086672998831,-0.000568286174153165,0.000690510962249924,0.00123215903191864,-0.00244773503862961,0.000893294710877512,-0.000196796636868335,-0.000150936399499368,-0.00184438607845827,-0.0033998851359387,-0.000582102140510798,-0.000910434812265493,0.000152614118375638,-0.000558930450851758,-0.0018573199479599
"10:26242309:A:G",2.47810249742741e-06,2.14981344113241e-05,-0.00326829473209234,-2.76587667658035e-05,-0.00269301711803749,-0.000164663214050176,0.137658608352063,-0.000372796135230224,-0.0039872701436936,-0.00206991960849301,-0.00342727243508723,-0.00416833726911126,3.18850857148334e-05,2.30884760528127e-05,-7.77356986869648e-05,-6.62473600492319e-05,5.18681163708123e-05,2.47810249831559e-06,-0.00195542195394172,-1.89405143915522e-05,1.33234991865905e-05,-3.77553222685734e-05,-0.000398842357057561,-2.84174008013949e-05,-0.00206991960849301,-0.0019072381376839,1.0426605403957e-05,1.47238832095553e-05,-6.26636606888553e-05,-0.000398842357057561,-0.000835159780821826,1.0426605403957e-05,-6.62473600492319e-05,3.36854174358692e-05,-3.77553222685734e-05,-0.00249240015350516,2.47810249831559e-06,-1.73755451733371e-05,-0.00109943236706567,-2.91689516682681e-05,-0.00176494814663819,4.3890894962928e-05,-0.00125489962018666,-0.00206991960849301,5.2037700120966e-05,1.33234991865905e-05,-0.000398842357057561,2.39759069025069e-05,-8.67170388199057e-05,3.18850857148334e-05,-0.00195542195394172,-0.0019072381376839,-0.000835159780821826,-0.00206991960849301,-3.77553222685734e-05,1.0426605403957e-05,-0.00195542195394172,-0.000398842357057561,3.3685417434981e-05,5.2037700120966e-05,2.30884760519245e-05,4.3890894962928e-05,-0.00184910148812545,-0.00218913455419845,-0.00247074437256245,-0.000117996085483796,3.18850857148334e-05,-0.00071084332270388,-8.43901161848848e-05,-0.00184910148812545,1.28411757573943e-05,-8.43901161848848e-05,-7.77356986860767e-05,-0.00662626335469785,-1.89405143915522e-05,-0.00178562976156282,-2.35708849514182e-05,-1.81615566576809e-05,-4.16705232408887e-05,-0.000950258176608543,-0.00178562976156282,-0.00306995074299987,-1.89405143915522e-05,-4.16705232408887e-05,-0.00178562976156282,-0.00306995074299987,-1.73755451733371e-05,-0.000487361638092487,-0.00306995074299987,-2.35708849514182e-05,-0.0019072381376839,-4.16705232408887e-05,-0.00306995074299987,-2.35708849514182e-05,-1.89405143915522e-05,-1.73755451733371e-05,2.47810249831559e-06,-0.00342727243508723,-0.00270325976604635,-6.37943231627247e-05,3.18850857148334e-05,-7.45551531484701e-05,4.3890894962928e-05,-0.00218385796532061,-0.0026705031331824,-0.00306995074299987,-1.97125047955993e-05,2.47810249831559e-06,-6.35605683552143e-06,-0.000950258176608543,-2.76587667658035e-05,-0.00257716606014657,1.28411757573943e-05,2.47810249831559e-06,-6.37943231627247e-05,3.18850857148334e-05,-6.35605683552143e-06,-0.00229772043728804,-0.00314879374223764,-0.00171076241294266,-6.62473600492319e-05,-0.00218913455419845,2.30884760519245e-05,-2.84251221294163e-05,8.36323017878726e-05,2.47810249831559e-06,-6.35605683552143e-06,-3.92141531069257e-05,-0.00314845508050254,-0.00255468575801476,1.47238832095553e-05,-0.00340487337177375,-6.41042005371517e-05,-1.73755451733371e-05,-6.35605683552143e-06,-5.91845214525932e-05,-0.00240568478229619,-6.44170459196403e-05,5.18253190442408e-05,-3.21318095890533e-05,-4.31045924287332e-06,-6.25293719753728e-05,2.47810249831559e-06,-0.00236473443416685,-0.00232923270156338,-0.00156345692796167,7.75114424564904e-05,-0.00270325976604635,-0.00314845508050254,-0.00346727662701518,-4.13498783995436e-05
"10:26244089:T:A",-0.0021064584937811,-0.00265002397275182,-0.00598826323956692,-0.000526912194653839,-0.000545895586849809,0.000320416742498608,-0.000372796135230224,0.326690770520847,-0.000671349211726735,-7.85188206968712e-05,-0.000986746412102946,-0.00033375347477449,-0.00115705052133031,-0.000917209886818426,-0.000139403431080432,-0.000570325462557086,0.000402012065881863,-0.00154558067899568,-0.000764553555326675,-0.00138100969137778,-0.000676896383184911,-0.000596948280337628,0.000168747770855404,-0.00026146795813986,-7.85188206968712e-05,-0.00347817737796952,-0.00168228619261157,-0.000147151909682286,-0.000155677067221305,0.000168747770855404,0.000368377511829721,-0.00168228619261157,-0.000570325462557086,-0.00123086249035076,-0.000596948280337628,-0.000818187581202778,-0.00154558067899568,-0.00231107241936179,-0.00173877977023196,-0.00132375894918546,-0.000280886454421037,-0.00249901447120404,-0.00492264058373326,-7.85188206968712e-05,0.000401333928419234,-0.000676896383184911,0.000168747770855404,-2.21575740884106e-05,-0.00238143741189401,-0.00115705052133031,-0.000764553555326675,-0.00347817737796952,0.000555078740352766,-7.85188206968712e-05,-0.000596948280337628,-0.00168228619261157,-0.000764553555326675,0.000168747770855404,-3.82053275558292e-05,0.000401333928419234,-0.000255720857104791,9.43904206636148e-05,-0.000640973828422098,-0.00172039950645342,-0.000256585989713898,-0.0001325195087718,-0.00115705052133031,-0.00102773146458723,-0.00608308790521539,-0.000640973828422098,-0.000472775190909935,-0.00608308790521539,-0.00012269228853512,-0.000568491407167748,-0.00138100969137778,-0.000585707373994993,-0.00586093903434204,-0.00154367841153746,-0.00599035606051501,-0.00163023106058091,-0.000585707373994993,-0.0104666083512464,-0.00138100969137778,-0.00599035606051501,-0.000585707373994993,-0.0104666083512464,-0.00231107241936179,-0.00624747911101986,-0.0104666083512464,-0.00586093903434204,-0.000238740505877466,-0.00599035606051501,-0.0104666083512464,-0.00586093903434204,-0.00138100969137778,-0.00231107241936179,-0.00154558067899657,-0.000986746412102946,-2.14462077838817e-05,-0.00333837774443868,-0.00115705052133031,-0.00608427077194662,-0.00249901447120404,-0.000472176783902878,-0.000557355776555468,-0.0104666083512464,-0.00523398914342454,-0.00154558067899657,-0.00523595580143343,-0.00163023106058091,-0.000526912194653839,-0.000679402891771375,-0.000472775190909935,-0.00154558067899657,-0.00333837774443868,-0.00115705052133031,-0.00523595580143343,-0.000127332820482273,-0.0112971116327074,-0.000759059170274412,-0.000570325462557086,-0.00172039950645342,-0.000255720857104791,-0.00663098638549409,-0.00250162313019064,-0.00154558067899657,-0.00523595580143343,-0.000371822814017264,-0.00164284315342389,-9.17356893292975e-06,-0.000147151909682286,-0.00924312453616905,-0.00575464827090144,-0.00231107241936179,-0.00523595580143343,-0.0135721014928198,3.26238532633027e-06,-0.00362946234434602,8.21999089559711e-05,-0.00392417696715297,1.56166732523388e-06,-0.000368504917314993,-0.00154558067899657,-0.000294020568829545,-0.00141851500026791,-0.0104197363223273,-0.00113519637331549,-2.14462077838817e-05,-0.00164284315342389,-0.00498059210380752,-0.00213576949652072
"10:26244660:T:A",6.56974935520083e-06,-0.00165457575463357,-0.000155880946860698,-0.00108149962104953,-0.00129081172066225,-0.000663144730180143,-0.0039872701436936,-0.000671349211726735,0.215265313166458,1.14271418381051e-05,-0.000421436934257002,-0.000279141630429969,8.83876091863911e-05,-0.00274697638862875,-0.000431879936862778,-0.000447031946275267,-0.00126273333166571,6.56974935697718e-06,-0.00295028379319007,-5.69665969827327e-05,-0.000353594758065512,-0.00237829789513899,-0.000766768001237761,-0.00122878305081819,1.14271418381051e-05,-0.00163602407956098,2.98450158169317e-05,-0.00259195116941058,-0.000356073115234778,-0.000766768001237761,-0.00146978654932051,2.98450158169317e-05,-0.000447031946275267,9.28999828220256e-05,-0.00237829789513899,-0.000960376157271625,6.56974935697718e-06,0.000210234293211542,-7.85209221376704e-05,-8.86815489495874e-05,-0.0077379350127238,0.000119123325697856,-0.00260847470289249,1.14271418381051e-05,-0.00125771384242013,-0.000353594758065512,-0.000766768001237761,-0.00257540889735264,-9.48040773787184e-05,8.83876091863911e-05,-0.00295028379319007,-0.00163602407956098,-0.00146978654932051,1.14271418381051e-05,-0.00237829789513899,2.98450158169317e-05,-0.00295028379319007,-0.000766768001237761,-0.00255934874626984,-0.00125771384242013,-0.00114889957965847,-0.00137458033069215,-0.00397813513359058,-0.00367843816206381,-0.00516174890414778,-0.000493276093258999,8.83876091863911e-05,-0.00171355037787269,-0.000194776293596988,-0.00397813513359058,-0.00187053218897493,-0.000194776293596988,-0.000460051195858568,-0.00100281676312708,-5.69665969827327e-05,-0.00380040379166147,-0.00127345043044969,-0.00129501051691339,-0.000150675266673783,-0.000774058038305547,-0.00380040379166147,-0.000188103459135114,-5.69665969827327e-05,-0.000150675266673783,-0.00380040379166147,-0.000188103459135114,0.000210234293211542,-3.75773832335113e-05,-0.000188103459135114,-0.00127345043044969,-0.00447994889117709,-0.000150675266673783,-0.000188103459135114,-0.00127345043044969,-5.69665969827327e-05,0.000210234293211542,6.56974935608901e-06,-0.000421436934257002,-0.002641020044579,-0.000875005862077671,8.83876091863911e-05,-0.000180139007485369,0.000119123325697856,-0.00909042700233575,-0.00123612976973764,-0.000188103459135114,-5.90328956233677e-05,6.56974935608901e-06,-0.00108534945474847,-0.000774058038305547,-0.00108149962104953,-0.00107898354298008,-0.00187053218897493,-0.0018923992380957,-0.000875005862077671,8.83876091863911e-05,-0.00108534945474847,-0.00480731452977334,-0.000176492767325342,-0.00618305772308592,-0.000447031946275267,-0.00367843816206381,-0.00114889957965847,-0.000146006298616719,-0.00196916810081138,-0.0018923992380957,-0.00108534945474847,-0.000991277112936118,-0.00311032601223982,-0.00248303573589226,-0.00259195116941058,-0.00681681242629084,-0.000396040078809889,0.000210234293211542,-0.00108534945474847,-0.000169227873195066,-0.00232221061251536,0.000448045123008889,-0.00113032264311563,-0.00337306642494717,-4.34867250085347e-05,-0.00205661211934238,-0.0018923992380957,-0.00197484143842974,-0.00948924181270394,-0.0083222623197452,-0.0031458525505359,-0.002641020044579,-0.00311032601223982,-0.000196470305750651,-0.000786353074050616
"10:26245366:C:T",-9.37251535404471e-06,-0.000246265249291611,-0.00314013460070761,7.65792582884117e-05,-0.00184889389673248,-0.000397365555367291,-0.00206991960849301,-7.85188206968712e-05,1.14271418381051e-05,0.111320249362138,0.000355193600083403,-0.00184996712976115,-0.000115059396882167,-8.1265805382813e-05,-0.0019041243508422,0.000168673845361234,-0.00020832933536985,-9.37251535315653e-06,0.0001438808951022,5.45940810656731e-05,-0.000159719534037706,-0.00170393677077563,-0.000127272254989208,7.90448171654745e-05,0.00264171824309933,-0.00186332624051921,-3.4301765380107e-05,-5.18023926820987e-05,-0.00198880176605964,-0.000127272254989208,-0.000152152133031436,-3.4301765380107e-05,0.000168673845361234,-0.00110416459010576,-0.00170393677077563,-0.0017388147052122,-9.37251535315653e-06,4.92661880331369e-05,1.60044040544705e-05,-0.00152626986241788,-1.69110973233799e-05,-0.00368862176505491,-0.00142234032256194,0.00264171824309933,-0.000209609113710485,-0.000159719534037706,-0.000127272254989208,-0.00331081313432247,1.87157746305289e-05,-0.000115059396882167,0.0001438808951022,-0.00186332624051921,-0.000152152133031436,0.00264171824309933,-0.00170393677077563,-3.4301765380107e-05,0.0001438808951022,-0.000127272254989208,-0.00129157305220584,-0.000209609113710485,-0.000331036447803967,-0.000168075008232904,0.000156617474283749,-0.00160704437303583,-0.00013677563267489,-0.00389740015915674,-0.000115059396882167,-0.00024068998334581,0.000246072080002602,0.000156617474283749,-0.000255531506945239,0.000246072080002602,-0.00186312462478355,2.34813776796017e-05,5.45940810656731e-05,0.000148571311216372,-0.000322991158840047,-7.47196858474908e-05,0.000221307953034433,-0.00145640513623224,0.000148571311216372,-0.00477094373292797,5.45940810656731e-05,0.000221307953034433,0.000148571311216372,-0.00477094373292797,4.92661880331369e-05,-0.000854302552738773,-0.00477094373292797,-0.000322991158840047,-0.00186332624051921,0.000221307953034433,-0.00477094373292797,-0.000322991158840047,5.45940810656731e-05,4.92661880331369e-05,-9.37251535404471e-06,0.000355193600083403,-2.25074482038679e-05,-0.00342101252073146,-0.000115059396882167,0.000245362534218696,-0.00368862176505491,0.000154199631789531,-0.00186985758254732,-0.00477094373292797,5.71989812865326e-05,-9.37251535404471e-06,-0.000303183798538775,-0.00145640513623224,7.65792582892999e-05,-0.0018203911675041,-0.000255531506945239,-9.37251535404471e-06,-0.00342101252073146,-0.000115059396882167,-0.000303183798538775,-9.72538849852711e-05,-0.00387507715182078,-8.1265805382813e-05,0.000168673845361234,-0.00160704437303583,-0.000331036447803967,0.000216358518650317,-0.00339121294184341,-9.37251535404471e-06,-0.000303183798538775,0.000105821466859446,-0.0018776045186657,-4.46420897901589e-05,-5.18023926820987e-05,-0.00412164704786822,-0.00192413623799137,4.92661880331369e-05,-0.000303183798538775,0.000223441649007672,-2.48985011133129e-05,0.000163598702026313,-0.00020458050028882,-0.00087889251031914,9.59935315414384e-06,-0.00219777699336277,-9.37251535404471e-06,-0.00234963909614194,0.000107059042137259,-0.000917674117390188,-0.00139168922683197,-1.1657050906777e-05,-0.0018776045186657,-0.00381482800404775,0.000112369162585502
"10:26246866:G:A",-1.36123969376456e-05,-0.00110284069978661,-0.000312151815868411,0.00010837574599698,0.000195515996308515,0.000801152480459422,-0.00342727243508723,-0.000986746412102946,-0.000421436934257002,0.000355193600083403,0.0612012539567175,0.000487482992116206,-0.00015463046730968,-0.000110711512606443,-0.0031997755053208,0.000251445012962037,0.000790796283199668,-1.36123969376456e-05,0.00141712636489277,-0.00258914170569824,-0.000883406519026408,0.000144698074842076,-0.00101345321522661,0.000112268120373571,0.000355193600083403,-0.00320623853404811,-4.7268480264151e-05,-7.18652968023648e-05,-0.00330224173750082,-0.00101345321522661,0.000662249414737914,-4.7268480264151e-05,0.000251445012962037,-0.000165886846481555,0.000144698074842076,9.62064159573117e-05,-1.36123969376456e-05,-0.00171645886165717,0.000578371557677038,0.000116112737463148,-0.00107444722423278,-0.000222502798542301,0.000148410791338094,0.000355193600083403,0.000787881004393753,-0.000883406519026408,-0.00101345321522661,-0.000116028729648221,-0.00144156221063518,-0.00015463046730968,0.00141712636489277,-0.00320623853404811,0.000662249414737914,0.000355193600083403,0.000144698074842076,-4.7268480264151e-05,0.00141712636489277,-0.00101345321522661,-0.000165886846481555,0.000787881004393753,-0.000110711512604666,-0.000452302128774562,0.00124371394738798,-8.43822871914313e-05,-0.000669310431889336,-0.00108453115601925,-0.00015463046730968,-0.000833853177780952,-0.00080503811956234,0.00124371394738798,-0.00077361460299219,-0.00080503811956234,-0.00315877577926127,-0.000377048215784548,-0.00258914170569824,0.00110455445686863,-0.0011321200613077,7.29090595950055e-05,-0.000788602751019774,-0.000839790592116252,0.00110455445686863,-0.000492513902758063,-0.00258914170569824,-0.000788602751019774,0.00110455445686863,-0.000492513902758063,-0.00171645886165717,-0.0013328788454352,-0.000492513902758063,-0.0011321200613077,-0.00320623853404811,-0.000788602751019774,-0.000492513902758063,-0.0011321200613077,-0.00258914170569824,-0.00171645886165717,-1.36123969367574e-05,0.00348653378436126,2.08503728265086e-05,0.00023934763029132,-0.00015463046730968,-0.000779973869583728,-0.000222502798542301,0.000944761509208192,0.000148057444893546,-0.000492513902758063,8.09847934339913e-05,-1.36123969367574e-05,-0.00113039575535279,-0.000839790592116252,0.00010837574599698,0.000100547621046942,-0.00077361460299219,-1.36123969367574e-05,0.00023934763029132,-0.00015463046730968,-0.00113039575535279,-0.000763965220500928,-0.000403653678451299,-0.000110711512604666,0.000251445012962037,-8.43822871914313e-05,-0.000110711512604666,-0.000854038664304113,0.000122141188672487,-1.36123969367574e-05,-0.00113039575535279,0.000152077391462946,6.87964187937595e-05,-6.1844420421231e-05,-7.18652968023648e-05,-0.00269341799802891,-0.00323430035528194,-0.00171645886165717,-0.00113039575535279,-0.000835202026615356,-2.2969121469707e-05,0.000242427976928639,-0.000274555769035345,0.000364540763206911,1.18123119401403e-05,0.000233070713385963,-1.36123969367574e-05,-4.75786447440285e-05,0.00108972603486812,-0.000922790295244447,-0.00108446473580504,2.08503728265086e-05,6.87964187937595e-05,-0.000103758967876288,0.00016280891759024
"10:26250566:G:A",1.41061566205636e-05,-0.00211184880816884,-0.00390237460151166,-0.000473455912556986,-0.00121530067724684,0.000958962611979253,-0.00416833726911126,-0.00033375347477449,-0.000279141630429969,-0.00184996712976115,0.000487482992116206,0.163362519366969,0.000288737905671965,0.00020184231471454,-0.00308276889466974,-0.0102431353326482,0.000790439301406654,1.41061566214518e-05,6.11866968389663e-05,-0.000472259568847555,0.000542206863729078,0.00348665865508124,-0.000327984735484677,-0.000257674786769968,-0.00184996712976115,-0.00451212562543368,9.25279941794699e-05,0.000118929802136236,-0.00313391582997191,-0.000327984735484677,0.000761853328991702,9.25279941794699e-05,-0.0102431353326482,0.00030143195880683,0.00348665865508124,-0.00115229652595517,1.41061566214518e-05,-0.00016399491909791,-0.00168705096753285,-0.000234726704533728,-0.0037408597517512,-0.00444082410107693,-0.00128012354946883,-0.00184996712976115,0.000797248226553471,0.000542206863729078,-0.000327984735484677,-0.00419377499975759,-0.000892466602747888,0.000288737905671965,6.11866968389663e-05,-0.00451212562543368,0.000761853328991702,-0.00184996712976115,0.00348665865508124,9.25279941794699e-05,6.11866968389663e-05,-0.000327984735484677,0.00030143195880683,0.000797248226553471,0.000201842314716316,0.000401668240401776,3.29317729725886e-05,-0.00229403783992055,0.000321019362412578,-0.000386817708807996,0.000288737905671965,0.000462642947842262,-0.00112575322295116,3.29317729725886e-05,0.00035586091669515,-0.00112575322295116,-0.00295322267171105,-0.000356863782378092,-0.000472259568847555,6.61255628688906e-05,-0.00229966414202032,-0.00101411054528455,-0.00112401386203631,-0.000981978266710648,6.61255628688906e-05,-0.00430183191768752,-0.000472259568847555,-0.00112401386203631,6.61255628688906e-05,-0.00430183191768752,-0.00016399491909791,-0.0030807505815913,-0.00430183191768752,-0.00229966414202032,-0.00451212562543368,-0.00112401386203631,-0.00430183191768752,-0.00229966414202032,-0.000472259568847555,-0.00016399491909791,1.41061566214518e-05,0.000487482992116206,-0.0038526773901264,0.002129734235786,0.000288737905671965,-0.00144997867896635,-0.00444082410107693,1.44771054753079e-05,-0.00111824005907479,-0.00430183191768752,-0.000175316753330712,1.41061566214518e-05,-0.00222918438419839,-0.000981978266710648,-0.000473455912556986,-0.00108420026695022,0.00035586091669515,1.41061566214518e-05,0.002129734235786,0.000288737905671965,-0.00222918438419839,0.000225702455878718,-0.00416036813340881,0.000201842314716316,-0.0102431353326482,-0.00229403783992055,0.000201842314716316,-0.00100721506393153,-0.00155653446374426,1.41061566214518e-05,-0.00222918438419839,-0.000443446259196456,-0.00295352657389181,0.000108190719944723,0.000118929802136236,-0.00428132088939925,-0.00296330073349882,-0.00016399491909791,-0.00222918438419839,-0.00105652727801786,-0.00195678701420299,-0.000527399515865667,0.000487482992116206,0.0020871798844917,-5.85415063083516e-05,0.00109742275869085,1.41061566214518e-05,-3.64958899101708e-05,0.000201082035951927,-0.00309545068418693,0.000760960879240713,-0.0038526773901264,-0.00295352657389181,-0.00256681680984894,-0.000358349222578269
"10:26252454:G:A",-7.41033550166748e-06,-0.000375930793944157,-0.00128108331879151,6.44395097708639e-05,0.000118182898077634,-0.00242540470254582,3.18850857148334e-05,-0.00115705052133031,8.83876091863911e-05,-0.000115059396882167,-0.00015463046730968,0.000288737905671965,0.0904445277638866,-6.38300164705896e-05,0.000158823359202032,0.000147684704940865,-0.00246976952088929,-7.41033550166748e-06,-0.00431706918535735,4.54682296986419e-05,-0.000196538626354048,8.61206858981944e-05,-0.00266317406187877,6.65331888098919e-05,-0.000115059396882167,6.01745884427629e-05,-2.74904783204022e-05,-4.09125606761762e-05,0.000129271515576512,-0.00266317406187877,-0.00488759202499534,-2.74904783204022e-05,0.000147684704940865,-9.56700129810528e-05,8.61206858981944e-05,6.02223316343853e-05,-7.41033550166748e-06,4.10502918013478e-05,-0.00210081003850515,6.86016358928399e-05,-1.26150644295109e-05,-0.00012830973663025,8.81067116660361e-05,-0.000115059396882167,-0.00479473195981317,-0.000196538626354048,-0.00266317406187877,-6.67374695115797e-05,1.55588045096522e-05,0.00328666182829984,-0.00431706918535735,6.01745884427629e-05,-0.00488759202499534,-0.000115059396882167,8.61206858981944e-05,-2.74904783204022e-05,-0.00431706918535735,-0.00266317406187877,-9.5670012981941e-05,-0.00479473195981317,-6.38300164697014e-05,-0.00012830973663025,-0.00424731572534309,-4.58583846745242e-05,-0.000105212344502448,0.000133494018774272,0.00328666182829984,-0.000175128724252183,-6.00987388654772e-05,-0.00424731572534309,-0.000141123223569295,-6.00987388654772e-05,0.00015882335920292,0.000121143140479063,4.54682296986419e-05,-0.00421799396993983,-0.000965526645400949,4.32725699965886e-05,-6.05423394919313e-05,-0.000184346430034843,-0.00421799396993983,-0.00133875290173169,4.54682296986419e-05,-6.05423394919313e-05,-0.00421799396993983,-0.00133875290173169,4.10502918013478e-05,-0.00122552744420368,-0.00133875290173169,-0.000965526645400949,6.01745884427629e-05,-6.05423394919313e-05,-0.00133875290173169,-0.000965526645400949,4.54682296986419e-05,4.10502918013478e-05,-7.4103355007793e-06,-0.00015463046730968,1.31536987808545e-05,0.000141293607762272,0.00328666182829984,-6.01066433780773e-05,-0.00012830973663025,-0.00414689236140386,9.03666047973317e-05,-0.00133875290173169,4.76377457330202e-05,-7.4103355007793e-06,-0.000987159060921172,-0.000184346430034843,6.44395097708639e-05,6.25377778291636e-05,-0.000141123223569295,-7.4103355007793e-06,0.000141293607762272,0.00328666182829984,-0.000987159060921172,-7.56777232968631e-05,-0.00130853692012334,-6.38300164697014e-05,0.000147684704940865,-4.58583846745242e-05,-6.38300164697014e-05,2.62281971776801e-05,-0.000281523913363557,-7.4103355007793e-06,-0.000987159060921172,9.00685091860254e-05,4.10502918013478e-05,-3.54461511431481e-05,-4.09125606761762e-05,-0.000358948573676798,0.000133166311142574,4.10502918013478e-05,-0.000987159060921172,-6.05079302360423e-05,-1.25011515796913e-05,0.000142920447819606,-0.00015463046730968,-0.00263197384368041,8.25441374985303e-06,0.00013797964353035,-7.4103355007793e-06,-0.000528862269906227,-0.00427076991314213,-4.03818306686787e-05,-0.000257308957356095,1.31536987808545e-05,4.10502918013478e-05,-0.00120737067939025,9.58128819696924e-05
"10:26254888:T:C",-5.11721772245011e-06,-0.000702118109599859,0.000170059498870501,4.59351775017325e-05,8.44664705414999e-05,-0.00130374126052946,2.30884760528127e-05,-0.000917209886818426,-0.00274697638862875,-8.1265805382813e-05,-0.000110711512606443,0.00020184231471454,-6.38300164705896e-05,0.0845609023503702,-0.00111628818329201,0.000104073736880927,-0.00126118573114553,-5.11721772067375e-06,0.00133676960803442,-0.00355894794591993,-0.00473269852558378,6.13152793693672e-05,-0.000903912826927922,4.73567397536456e-05,-8.1265805382813e-05,4.30381000935398e-05,-1.95545265020414e-05,-2.88783458888275e-05,-0.001077525798312,-0.000903912826927922,-0.00122539764609808,-1.95545265020414e-05,0.000104073736880927,-0.00550406896755273,6.13152793693672e-05,4.3807352736458e-05,-5.11721772067375e-06,2.93542092038024e-05,0.000238100331824143,4.87607600483386e-05,-0.00103824454957024,-0.000303218095385915,6.26552398621527e-05,-8.1265805382813e-05,-0.00126181848990381,-0.00473269852558378,-0.000903912826927922,-4.73967683429777e-05,1.12795477154037e-05,-6.38300164705896e-05,0.00133676960803442,4.30381000935398e-05,-0.00122539764609808,-8.1265805382813e-05,6.13152793693672e-05,-1.95545265020414e-05,0.00133676960803442,-0.000903912826927922,-6.81606334760332e-05,-0.00126181848990381,-4.53654902727862e-05,-9.16247650346591e-05,0.000878113736618502,-0.00203884203699989,-0.000542741667931779,-0.00115738052481618,-6.38300164705896e-05,-0.00457906037238409,-0.00010711896709914,0.000878113736618502,-0.00449249486005776,-0.00010711896709914,-0.00116515938028705,-0.00285570533166002,-0.00355894794591993,0.000479887349718489,-0.000599310909992212,3.08722657766936e-05,-0.000109105934933851,-0.000131827669149764,0.000479887349718489,0.000232776906782028,-0.00355894794591993,-0.000109105934933851,0.000479887349718489,0.000232776906782028,2.93542092038024e-05,-0.000882037474599251,0.000232776906782028,-0.000599310909992212,4.30381000935398e-05,-0.000109105934933851,0.000232776906782028,-0.000599310909992212,-0.00355894794591993,2.93542092038024e-05,-5.11721772067375e-06,-0.000110711512606443,9.62629451795038e-06,9.98333390915818e-05,-6.38300164705896e-05,-9.80604917693029e-05,-0.000303218095385915,0.000425955787952681,6.49660770255522e-05,0.000232776906782028,-0.00415230840749636,-5.11721772067375e-06,-0.000628945997374508,-0.000131827669149764,4.59351775017325e-05,4.53752419335984e-05,-0.00449249486005776,-6.59412031414064e-05,9.98333390915818e-05,-6.38300164705896e-05,-0.000628945997374508,-5.36475429111505e-05,0.000211542867179837,-4.53654902727862e-05,0.000104073736880927,-0.00203884203699989,-4.53654902727862e-05,-0.000141270259375048,-0.000203263283548694,-6.59412031414064e-05,-0.000628945997374508,6.39784817755285e-05,2.93542092038024e-05,-2.50790646081356e-05,-2.88783458888275e-05,-8.35658642941439e-05,-0.00114898190384416,2.93542092038024e-05,-0.000628945997374508,-0.00012526194390361,-8.63561512787214e-06,-0.00267671582870221,-0.000110711512606443,-0.00191490311641118,6.25689931599283e-06,9.76329974777812e-05,-6.59412031414064e-05,-1.59006973872167e-05,0.000339811592266592,-0.00100380054462246,-0.00521113090691294,9.62629451795038e-06,2.93542092038024e-05,0.000121894384176535,6.7850958701321e-05
"10:26257740:A:G",-1.05899692890432e-05,-0.000636924890290658,-0.00690419766219197,-0.00475132062551609,-0.00327132922041606,1.97771806886848e-06,-7.77356986869648e-05,-0.000139403431080432,-0.000431879936862778,-0.0019041243508422,-0.0031997755053208,-0.00308276889466974,0.000158823359202032,-0.00111628818329201,0.182651654586782,-0.000326727969287788,-0.000141079222261808,0.000887078217934878,-0.000133540032853041,-0.0011994566902338,-0.00258826526277023,-0.00127491224727194,-0.00010566107937926,-0.000144840842821736,-0.0019041243508422,-0.000136393763634501,5.17472240701977e-05,-0.00166662826071828,0.000791338975830946,-0.00010566107937926,-0.000618766991879127,5.17472240701977e-05,-0.000326727969287788,0.000166857176989055,-0.00127491224727194,-0.00476434016990357,0.000887078217934878,-0.00145446141667271,-0.00379176104751355,-0.00119215255233041,-0.000115517550978161,-7.79294569523969e-05,-0.00334653200881352,-0.0019041243508422,-0.000141925637927809,-0.00258826526277023,-0.00010566107937926,-0.00365895752869427,-3.73044661410304e-05,0.000158823359202032,-0.000133540032853041,-0.000136393763634501,-0.000618766991879127,-0.0019041243508422,-0.00127491224727194,5.17472240701977e-05,-0.000133540032853041,-0.00010566107937926,4.99627435424088e-06,-0.000141925637927809,-0.00151558362070769,-0.00183177045518246,-0.000192983561151827,-0.000432226901515342,6.03246076940067e-05,-0.00137558799796711,0.000158823359202032,-0.000690638971370561,0.00118524524606656,-0.000192983561151827,-0.000595221520420353,0.00118524524606656,0.000976364477862646,-0.000544283152566827,-0.0011994566902338,-0.000201029724220092,-0.000134760967035241,-9.30959306870704e-05,0.00109827333618551,0.000218621413619502,-0.000201029724220092,-0.0066304507326862,-0.0011994566902338,0.00109827333618551,-0.000201029724220092,-0.0066304507326862,-0.00145446141667271,-0.00284893747224935,-0.0066304507326862,-0.000134760967035241,-0.000136393763634501,0.00109827333618551,-0.0066304507326862,-0.000134760967035241,-0.0011994566902338,-0.00145446141667271,0.000887078217934878,-0.0031997755053208,-0.00367445285926671,-0.000797442725543718,0.000158823359202032,0.00116007143402497,-7.79294569523969e-05,-0.000283992628758334,-0.00318383140995504,-0.0066304507326862,-9.90119381478749e-05,0.000887078217934878,-0.000256722465011627,0.000218621413619502,-0.00475132062551697,-0.00293409406775424,-0.000595221520420353,1.01108775405478e-05,-0.000797442725543718,0.000158823359202032,-0.000256722465011627,5.94243050775489e-05,-0.00674209418469651,-0.00284007175728362,-0.000326727969287788,-0.000432226901515342,-0.00151558362070769,0.00110556526649841,0.000434860690041283,1.01108775405478e-05,-0.000256722465011627,-0.00585725633918521,-0.00145446141667271,-0.00248208496423352,-0.00166662826071828,-0.000904237452838519,-0.00187968727124233,-0.00145446141667271,-0.000256722465011627,-0.00202794337427159,-0.0019271731029944,-0.00101609155460025,-0.000291933053882865,-0.00733967423391757,-0.00263397821261258,-0.00117758149735003,1.01108775405478e-05,-0.000841766052795734,-0.00280734126648596,-0.00300101808462871,0.00010829604360385,-0.0016871307594819,-0.00145446141667271,-0.00538295619628393,-0.00136785457931854
"10:26261368:G:A",9.25845221910748e-06,0.000559639945824308,-0.000691716582455371,-0.000120299352297515,-0.00156723407436576,-0.00396504252214314,-6.62473600492319e-05,-0.000570325462557086,-0.000447031946275267,0.000168673845361234,0.000251445012962037,-0.0102431353326482,0.000147684704940865,0.000104073736880927,-0.000326727969287788,0.151581143713336,-0.00358679220067692,9.25845222177202e-06,0.000261526472590923,-8.25986422841041e-05,-0.000559876084462729,-0.00925368822685968,-0.000544241745457974,-0.000122759906771464,0.000168673845361234,-0.000115292575204151,4.65737659727239e-05,6.35133708914992e-05,-0.0002717704995856,-0.000544241745457974,-0.00356079229390005,4.65737659727239e-05,0.00689776813711784,-0.00154918203604915,-0.00925368822685968,-0.00193514679480256,9.25845222177202e-06,-7.72719882666806e-05,-0.000303658070263779,-0.000125192552974163,2.21838661396134e-06,0.000207756761527733,-0.000164245645297711,0.000168673845361234,-0.00359385400632917,-0.000559876084462729,-0.000544241745457974,0.000107769947444325,-3.22159527712529e-05,0.000147684704940865,0.000261526472590923,-0.000115292575204151,-0.00356079229390005,0.000168673845361234,-0.00925368822685968,4.65737659727239e-05,0.000261526472590923,-0.000544241745457974,0.000155576292173443,-0.00359385400632917,0.000104073736880927,0.000207756761527733,0.000221066523694802,-0.000623621537560126,0.000167753273875526,-0.00143919938659032,0.000147684704940865,-0.000459089499214471,-0.00560046060178543,0.000221066523694802,-0.000451832606151115,-0.00560046060178543,-0.000326727969288676,-0.00045310926818054,-8.25986422841041e-05,0.00022106652369569,0.000761402953400214,-7.99503502610932e-05,-0.00560090420241277,0.000289481699782712,0.00022106652369569,-0.000747625862889123,-8.25986422841041e-05,-0.00560090420241277,0.00022106652369569,-0.000747625862889123,-7.72719882666806e-05,-0.00245832578983318,-0.000747625862889123,0.000761402953400214,-0.000115292575204151,-0.00560090420241277,-0.000747625862889123,0.000761402953400214,-8.25986422841041e-05,-7.72719882666806e-05,9.25845222088384e-06,0.000251445012962037,-2.92634612923948e-05,-0.0102735498266968,0.000147684704940865,-0.00560046850629803,0.000207756761527733,0.000172382138787341,-0.00154245472957015,-0.000747625862889123,-8.52173678893564e-05,9.25845222088384e-06,0.000713636827753383,0.000289481699782712,-0.000120299352297515,-0.00171662537129702,-0.000451832606151115,9.25845222088384e-06,-0.0102735498266968,0.000147684704940865,0.000713636827753383,0.000119112837611901,-0.000735591956575909,0.000104073736880927,0.00689776813711784,-0.000623621537560126,0.000104073736880927,-0.00580074656152796,0.000449883208873736,9.25845222088384e-06,0.000713636827753383,-0.000166478443959228,-7.72719882666806e-05,5.66237208854403e-05,6.35133708914992e-05,-0.000916122076404235,-0.000275472334102744,-7.72719882666806e-05,0.000713636827753383,-0.00560086979315599,1.56053260447209e-05,0.000194261693390096,0.000251445012962037,-0.00476859435145816,-2.32566450133476e-05,-0.00968399520773566,9.25845222088384e-06,-0.00318985777022096,0.000293143277713348,-0.00454183195580082,-0.000889676076956114,-2.92634612923948e-05,-7.72719882666806e-05,-0.000685127747392933,-0.000173025061353194
"10:26263199:C:G",-0.00212598769192773,-0.000819690223620828,0.00151332998878617,-0.00261434308314801,-0.00179848410555339,-0.00223030316984119,5.18681163708123e-05,0.000402012065881863,-0.00126273333166571,-0.00020832933536985,0.000790796283199668,0.000790439301406654,-0.00246976952088929,-0.00126118573114553,-0.000141079222261808,-0.00358679220067692,0.257781504971837,-0.00477628211204895,-0.00102682061424364,-0.00420197782315856,0.000673381529865402,0.000280405485095336,-0.001438351365604,-0.000945176171883055,-0.00020832933536985,0.000150595226958483,-0.000437434638220324,0.000203060066459315,-0.000459357694226892,-0.001438351365604,-0.000678652372210209,-0.000437434638220324,-0.00358679220067692,-0.00240680867829912,0.000280405485095336,-0.00218781308727722,-0.00477628211204895,-0.00153940333759461,0.0019038860393108,0.000342087927848844,-0.00998447775990252,-0.000873110352110018,-0.00128004303762008,-0.00020832933536985,0.00371559563230406,0.000673381529865402,-0.001438351365604,-0.00844143517646856,-0.000478025981056618,-0.00246976952088929,-0.00102682061424364,0.000150595226958483,-0.000678652372210209,-0.00020832933536985,0.000280405485095336,-0.000437434638220324,-0.00102682061424364,-0.001438351365604,-0.000638405099900652,0.00371559563230406,-0.00136865059789049,-9.07106259218082e-05,-0.00248593602649949,-2.99798258551753e-05,-0.00850568604856283,-0.0020963073648117,-0.00246976952088929,-0.000940685120278673,-0.00815702528951601,-0.00248593602649949,-0.000736679058396916,-0.00815702528951601,-0.000719949458470204,-0.0014701400616568,-0.00420197782315856,-0.00207930066749151,-0.00292380959587524,-0.00139906123677225,-0.00538731085168154,-0.00177543351368836,-0.00207930066749151,0.00162702885516497,-0.00420197782315856,-0.00538731085168154,-0.00207930066749151,0.00162702885516497,-0.00153940333759461,-0.00696595035923941,0.00162702885516497,-0.00292380959587524,0.000150595226958483,-0.00538731085168154,0.00162702885516497,-0.00292380959587524,-0.00420197782315856,-0.00153940333759461,-0.00477628211204895,0.000790796283199668,-0.00266293211763369,0.00106048266868886,-0.00246976952088929,-0.00511509042782388,-0.000873110352110018,-0.00272506058727862,-0.00232562569619477,0.00162702885516497,-0.00166936971026388,-0.00477628211204895,-0.00257751487248159,-0.00177543351368836,-0.00261434308314801,-0.00164647632374315,-0.000736679058396916,-0.000106765969229983,0.00106048266868886,-0.00246976952088929,-0.00257751487248159,-0.00724684404593967,-0.000733821977944249,0.000366470536486752,-0.00358679220067692,-2.99798258551753e-05,-0.00136865059789049,-0.00588330098828926,-0.00466854894164515,-0.000106765969229983,-0.00257751487248159,-0.00162658089751311,0.000128817873542353,-0.00664964100761622,0.000203060066459315,-0.00622450376103023,-0.00146628086659062,-0.00153940333759461,-0.00257751487248159,-0.00693051535321931,-0.0016026927855064,-0.000681086747975179,0.000490821144994769,-0.00103074972746287,-0.00247306658308055,0.000812720682487278,-0.000106765969229983,-6.23648225133167e-05,-0.00119912743271211,-0.00426513435607934,-0.00058145710980595,-0.000891810309377128,0.000128817873542353,-0.000689411738668877,-0.00192595770088122
"10:26263453:C:A",-5.14016636365966e-07,-0.00111552195498099,1.31319456322387e-05,4.61469325241382e-06,7.98134693269503e-06,-0.00479540436054648,2.47810249831559e-06,-0.00154558067899568,6.56974935697718e-06,-9.37251535315653e-06,-1.36123969376456e-05,1.41061566214518e-05,-7.41033550166748e-06,-5.11721772067375e-06,0.000887078217934878,9.25845222177202e-06,-0.00477628211204895,0.0999888729659659,-0.00449662755407143,3.31255421848198e-06,-1.7432845740295e-05,5.99387308053423e-06,-0.00150746984634331,4.73309995996374e-06,-9.37251535315653e-06,4.37155594656957e-06,-2.14350637683935e-06,-3.14406621448882e-06,0.000956249202989312,-0.00150746984634331,-0.00465530284991811,-2.14350637683935e-06,9.25845222177202e-06,-7.93025694889593e-06,5.99387308053423e-06,4.58734286290507e-06,0.00222606098362998,3.04404098816491e-06,1.4766291613455e-05,4.84946335532754e-06,-6.72329631079549e-07,-1.09837022437276e-05,6.09781872462634e-06,-9.37251535315653e-06,-0.00477542437421086,-1.7432845740295e-05,-0.00150746984634331,-5.34901708615365e-06,1.2352201705923e-06,-7.41033550166748e-06,-0.00449662755407143,4.37155594656957e-06,-0.00465530284991811,-9.37251535315653e-06,5.99387308053423e-06,-2.14350637683935e-06,-0.00449662755407143,-0.00150746984634331,-0.00110636261035602,-0.00477542437421086,-5.11721771978557e-06,-1.09837022437276e-05,-0.00443760355747624,-3.30546471882798e-06,-8.7449869212719e-06,7.56362296083779e-06,-7.41033550166748e-06,-1.50905699412007e-05,-0.00139581353966456,-0.00443760355747624,-1.16742434945749e-05,-0.00139581353966456,0.000573714270372783,8.35378742447546e-06,3.31255421848198e-06,-0.00440440976757994,-0.000931065247129048,3.17945617034354e-06,-0.00141678186259053,-0.00116079356208676,-0.00440440976757994,1.4740271351954e-05,3.31255421848198e-06,-0.00141678186259053,-0.00440440976757994,1.4740271351954e-05,3.04404098816491e-06,-0.00127335180787291,1.4740271351954e-05,-0.000931065247129048,4.37155594656957e-06,-0.00141678186259053,1.4740271351954e-05,-0.000931065247129048,3.31255421848198e-06,3.04404098816491e-06,0.00222606098362998,-1.36123969376456e-05,1.07676773364318e-06,8.99211149540946e-06,-7.41033550166748e-06,-0.00139742052639402,-1.09837022437276e-05,-0.00435272217657534,6.42315862808829e-06,1.4740271351954e-05,3.44338771629538e-06,0.00222606098362998,-0.000980145566345847,-0.00116079356208676,4.61469325241382e-06,4.71692887771269e-06,-1.16742434945749e-05,-5.14016636365966e-07,8.99211149540946e-06,-7.41033550166748e-06,-0.000980145566345847,-6.06917058920686e-06,1.44079221158222e-05,-5.11721771978557e-06,9.25845222177202e-06,-3.30546471882798e-06,-5.11721771978557e-06,-0.0014323434816399,-2.76440301494318e-05,-5.14016636365966e-07,-0.000980145566345847,6.1999446465677e-06,3.04404098816491e-06,-2.73349664947631e-06,-3.14406621448882e-06,-0.00412015263579235,8.86499236774085e-06,3.04404098816491e-06,-0.000980145566345847,-0.00163819862081382,-8.71670331470398e-07,9.06045324278182e-06,-1.36123969376456e-05,-0.00211484574435428,7.51447662317162e-07,8.85174653930676e-06,-5.14016636365966e-07,-1.46652259491731e-06,-0.00136474950985566,-0.00152775792074689,-2.44979746870655e-05,1.07676773364318e-06,3.04404098816491e-06,1.07521884924466e-05,6.495820445096e-06
"10:26265265:A:G",-1.71062630798247e-05,-0.00133068602972664,2.32728949622896e-06,0.000122602999080179,-0.00243843594060777,-0.00238881929605617,-0.00195542195394172,-0.000764553555326675,-0.00295028379319007,0.0001438808951022,0.00141712636489277,6.11866968389663e-05,-0.00431706918535735,0.00133676960803442,-0.000133540032853041,0.000261526472590923,-0.00102682061424364,-0.00449662755407143,0.119050798551597,-0.000430995105170418,0.000226514112391385,-0.000137160476697318,-0.000904294962417396,-0.000148344773870157,0.0001438808951022,-0.00155605582574658,-5.8437144712542e-05,0.00240308920207966,-4.22215585764718e-05,-0.000904294962417396,-0.000987884869569466,-5.8437144712542e-05,0.000261526472590923,0.000116017808278635,-0.000137160476697318,-0.00135342427219065,-0.00449662755407143,-0.000442123363102453,-0.000953547577851488,-0.00146943091418894,-0.00776495272898092,-0.00117098351582801,-0.00188616604037595,0.0001438808951022,-0.00103204805503454,0.000226514112391385,-0.000904294962417396,-0.00270373400984436,-0.00485193056179334,-0.00431706918535735,0.0128238774830782,-0.00155605582574658,-0.000987884869569466,0.0001438808951022,-0.000137160476697318,-5.8437144712542e-05,0.0128238774830782,-0.000904294962417396,-0.00133816666193898,-0.00103204805503454,-0.00117730865051779,-0.000379434691027747,0.0025305760404235,-0.00289055187014231,-0.00418378933713548,-8.49150259165654e-05,-0.00431706918535735,-8.71593447380192e-05,9.50197925142504e-05,0.0025305760404235,-0.000231268343977575,9.50197925142504e-05,-0.000258813052806062,-0.0026946466979636,-0.000430995105170418,-0.000790341169371267,-0.00217478947146876,-0.000167160881374251,-0.000135577752711669,-0.0058399343944906,-0.000790341169371267,-0.000144406319062984,-0.000430995105170418,-0.000135577752711669,-0.000790341169371267,-0.000144406319062984,-0.000442123363102453,-0.00501099934520344,-0.000144406319062984,-0.00217478947146876,-0.00155605582574658,-0.000135577752711669,-0.000144406319062984,-0.00217478947146876,-0.000430995105170418,-0.000442123363102453,-0.00449662755407143,0.00141712636489277,2.39634734473526e-05,-0.00100562843265894,-0.00431706918535735,-0.000139599445128535,-0.00117098351582801,-0.00114385882698187,-0.0025168855878448,-0.000144406319062984,0.00145717233994613,-0.00449662755407143,-0.00193581671218279,-0.0058399343944906,0.000122602999080179,-0.00279201434455434,-0.000231268343977575,0.00211282112870137,-0.00100562843265894,-0.00431706918535735,-0.00193581671218279,-0.00292934122917288,-6.2772852147841e-05,-0.000142329117198692,0.000261526472590923,-0.00289055187014231,-0.00117730865051779,-0.000285035298523084,0.000417669565994316,0.00211282112870137,-0.00193581671218279,0.000168100519909231,-0.00184219318184375,0.00029339437116338,0.00240308920207966,-0.00533228798081042,-0.000710298651630303,-0.000442123363102453,-0.00193581671218279,-0.000365641847996923,-2.90735945069898e-05,-0.00108193292517367,0.000173353602541226,-0.00133837125069869,-6.98002520644891e-05,-0.000224955855991915,0.00211282112870137,-0.000285835609951768,-0.000392344135672573,-0.000718710963634628,0.000683148826086999,2.39634734473526e-05,-0.00184219318184375,8.21753551427662e-05,0.000178871329486796
"10:26265941:T:A",3.31255421670562e-06,-0.00173966985490281,-0.000147374660891764,-3.61465709710629e-05,-6.97442205144228e-05,-0.00415824762390482,-1.89405143915522e-05,-0.00138100969137778,-5.69665969827327e-05,5.45940810656731e-05,-0.00258914170569824,-0.000472259568847555,4.54682296986419e-05,-0.00355894794591993,-0.0011994566902338,-8.25986422841041e-05,-0.00420197782315856,3.31255421848198e-06,-0.000430995105170418,0.0870192041654994,9.28468862113618e-05,-4.87207263146772e-05,-0.00140093462651159,-3.70833018958905e-05,5.45940810656731e-05,-3.42417091570013e-05,1.43389289801732e-05,2.02930042849658e-05,-0.00123445032700875,-0.00140093462651159,-0.00437658102608385,1.43389289801732e-05,-8.25986422841041e-05,4.8157590843978e-05,-4.87207263146772e-05,-3.72813843156905e-05,3.31255421848198e-06,-2.30349024539223e-05,-0.000206297645791942,-0.000670388154143886,3.30416573479653e-06,-0.00282474955702039,-4.96046046256637e-05,5.45940810656731e-05,-0.00420255972118788,9.28468862113618e-05,-0.00140093462651159,3.36496724617774e-05,-9.19467847904087e-06,4.54682296986419e-05,-0.000430995105170418,-3.42417091570013e-05,-0.00437658102608385,5.45940810656731e-05,-4.87207263146772e-05,1.43389289801732e-05,-0.000430995105170418,-0.00140093462651159,4.8157590843978e-05,-0.00420255972118788,3.23716817813846e-05,6.40386233525803e-05,-0.000436910947716918,2.02851995574349e-05,5.23004195658316e-05,-6.79545397472836e-05,4.54682296986419e-05,8.20025972707583e-05,0.000102106040643868,-0.000436910947716918,6.56633302940079e-05,0.000102106040643868,-0.00115845696417516,-7.53676291953553e-05,0.000740298787945015,-0.000433669512656998,-0.00195230932472423,-2.40307567445086e-05,4.59017759677494e-05,8.95371684768165e-05,-0.000433669512656998,-0.000206323666052555,0.000740298787945015,4.59017759677494e-05,-0.000433669512656998,-0.000206323666052555,-2.30349024539223e-05,-0.00151573889833934,-0.000206323666052555,-0.00195230932472423,-3.42417091570013e-05,4.59017759677494e-05,-0.000206323666052555,-0.00195230932472423,0.000740298787945015,-2.30349024539223e-05,3.3125542175938e-06,-0.00258914170569824,-8.12016132645255e-06,-7.97966009100648e-05,4.54682296986419e-05,8.57624767220955e-05,-0.00282474955702039,-0.000444871409388092,-5.38928247211246e-05,-0.000206323666052555,-0.000907609073854232,3.3125542175938e-06,-0.00188993929993231,8.95371684768165e-05,-3.61465709710629e-05,-3.82976058350692e-05,6.56633302940079e-05,-0.00254462507868869,-7.97966009100648e-05,4.54682296986419e-05,-0.00188993929993231,3.75666518017681e-05,-0.000186174100428538,3.23716817813846e-05,-8.25986422841041e-05,2.02851995574349e-05,3.23716817813846e-05,4.5301786689933e-05,0.000135535166315037,-0.00254462507868869,-0.00188993929993231,-5.04786366022358e-05,-0.000973652404768544,1.78733884697024e-05,2.02930042849658e-05,-0.000628011260395134,-0.00117655189659249,-2.30349024539223e-05,-0.00188993929993231,7.85774970859521e-05,5.58044540177605e-06,-8.05089392548197e-05,7.6971547708915e-05,-0.00193928497078844,-0.00147888103977412,-7.83474567329634e-05,-0.00254462507868869,8.25000532245213e-06,-0.000409974203736674,-6.08004190896239e-05,0.000122873764121678,-8.12016132645255e-06,-0.000973652404768544,-0.000106362065626087,-5.30432693999217e-05
"10:26266144:G:A",-4.61481943663244e-05,-0.00101296447442678,0.000356175766739852,-0.00285286861569656,-0.000450999750033709,-0.00152645084621517,1.33234991865905e-05,-0.000676896383184911,-0.000353594758065512,-0.000159719534037706,-0.000883406519026408,0.000542206863729078,-0.000196538626354048,-0.00473269852558378,-0.00258826526277023,-0.000559876084462729,0.000673381529865402,-1.7432845740295e-05,0.000226514112391385,9.28468862113618e-05,0.0887257684737253,0.000171950264951093,-0.000621595618758519,-0.00161869007604842,-0.000159719534038594,-0.00183728502175118,-5.87671521481425e-05,-0.00123753848379859,-0.00137772879578524,-0.000621595618758519,-0.00157006880569632,-5.87671521481425e-05,-0.000559876084462729,0.000834575227084855,0.000171950264951093,-0.000702217742303723,-1.7432845740295e-05,8.26946762302327e-05,-0.000841241189305286,0.000139094059728784,-4.69413892680848e-05,-0.000567628493111094,0.000176427510561794,-0.000159719534038594,0.000668594778865383,0.00120117112367435,-0.000621595618758519,-0.000147109620960428,3.00823826027141e-05,-0.000196538626354048,0.000226514112392273,-0.00183728502175118,-0.00157006880569632,-0.000159719534038594,0.000171950264951093,-5.87671521481425e-05,0.000226514112392273,-0.000621595618758519,7.73388566797095e-05,0.000668594778865383,-0.000140006253308123,0.0010310935500506,0.00015474168555496,-0.00326864185507869,-0.00137145832486674,-0.000356419711301292,-0.000196538626354048,0.000767950361924008,0.000689636595478493,0.00015474168555496,-0.00126473250593317,0.000689636595478493,-0.00246836328671485,-0.000368258688254741,9.28468862113618e-05,8.19102560294382e-05,-0.0024866639561143,-0.00264216239217774,0.000644707810967038,-0.000160047950815034,8.19102560294382e-05,0.000187846978445094,9.28468862113618e-05,0.000644707810967038,8.19102560294382e-05,0.000187846978445094,8.26946762302327e-05,-0.000980719119490381,0.000187846978445094,-0.0024866639561143,9.48478786266804e-06,0.000644707810967038,0.000187846978445094,-0.0024866639561143,9.28468862113618e-05,8.26946762302327e-05,-1.7432845740295e-05,-0.000883406519026408,-0.00221269257975543,0.000280356775405721,-0.000196538626354048,0.000688028938081953,-0.000567628493111094,0.000160342448994655,-0.000514326748033866,0.000187846978445094,-0.00178053038961234,-1.7432845740295e-05,-0.002671081646346,-0.000160047950815034,-0.00285286861569656,9.04043598159987e-05,-0.00126473250593317,-0.0035644044754477,0.000280356775405721,-0.000196538626354048,-0.002671081646346,-0.00145179319656652,0.00010793234522577,-0.000140006253308123,-0.000559876084462729,-0.00326864185507869,-0.000140006253308123,0.000652993978432548,-0.00512428387357122,-0.0035644044754477,-0.002671081646346,-0.00304347526822113,8.26946762302327e-05,2.44015936576858e-05,-0.00123753848379859,0.000488218688567077,-0.00126076462911318,8.26946762302327e-05,-0.002671081646346,0.000649130822923727,-2.94920480712335e-05,0.000283901089250804,0.00114638226658226,0.000432326333883459,1.29431028161875e-05,0.00027310909475009,-0.0035644044754477,-0.0049065167074902,0.000164628277512513,-0.00207662586847945,0.000813830853047648,2.44549374990299e-05,8.26946762302327e-05,-0.000268054658542738,0.000193685853603576
"10:26268849:C:G",5.99387307875787e-06,-0.00158298623305519,-0.00160030914170584,-7.08858157070225e-05,-0.000139393111386887,0.000321249602546647,-3.77553222685734e-05,-0.000596948280337628,-0.00237829789513899,-0.00170393677077563,0.000144698074842076,0.00348665865508124,8.61206858981944e-05,6.13152793693672e-05,-0.00127491224727194,-0.00925368822685968,0.000280405485095336,5.99387308053423e-06,-0.000137160476697318,-4.87207263146772e-05,0.000171950264951093,0.0981117282585844,-0.000640216079040634,-7.25715984817299e-05,-0.00170393677077563,-6.74582584352379e-05,2.7411560169277e-05,3.8173484258941e-05,-0.00129301564307838,-0.000640216079040634,0.000174397342698196,2.7411560169277e-05,-0.00925368822685968,9.09599277401085e-05,0.00363068422672974,-7.54005886616227e-05,5.99387308053423e-06,-4.51442641207223e-05,7.18334018730005e-05,-0.00456956875230841,4.29356139264314e-06,0.000120568703008139,-0.000854222015867379,-0.00170393677077563,0.000280469836247743,0.000171950264951093,-0.000640216079040634,6.3620455703628e-05,-0.00120944676708667,8.61206858981944e-05,-0.000137160476697318,-6.74582584352379e-05,0.000174397342698196,-0.00170393677077563,0.00363068422672974,2.7411560169277e-05,-0.000137160476697318,-0.000640216079040634,9.09599277401085e-05,0.000280469836247743,6.13152793693672e-05,0.000120568703008139,-0.00015326000081739,-0.00316312022261211,9.84073395731144e-05,-0.000140551341668349,8.61206858981944e-05,0.000151533850449859,-0.000254748244987724,-0.00015326000081739,0.000121110519509138,-0.000254748244987724,-0.00123391252121241,-0.00230924547084221,-4.87207263146772e-05,-0.00015001856575747,-0.00175662995008263,-0.00418480490436846,-0.000304896364907048,-0.00173434580134568,-0.00015001856575747,-0.00180429161371443,-4.87207263146772e-05,-0.000304896364907048,-0.00015001856575747,-0.00180429161371443,-4.51442641207223e-05,-0.00135036689739199,-0.00180429161371443,-0.00175662995008263,-6.74582584352379e-05,-0.000304896364907048,-0.00180429161371443,-0.00175662995008263,-4.87207263146772e-05,-4.51442641207223e-05,5.99387307964605e-06,0.000144698074842076,-1.63362746139484e-05,0.00174773638524428,8.61206858981944e-05,-0.000919953935213158,0.000120568703008139,-0.000173804656471432,-0.000107958082684156,-0.00180429161371443,-5.04805406738029e-05,5.99387307964605e-06,-0.00170296327815045,-0.00173434580134568,-7.08858157070225e-05,-7.72186396416075e-05,0.000121110519509138,5.99387307964605e-06,0.00174773638524428,8.61206858981944e-05,-0.00170296327815045,7.06810257984358e-05,-0.00172505968015901,6.13152793693672e-05,-0.00925368822685968,-0.00316312022261211,6.13152793693672e-05,-0.000291650963796908,-0.000830322930446492,5.99387307964605e-06,-0.00170296327815045,-9.90217482934597e-05,-0.00389529833108959,3.38017912975275e-05,3.8173484258941e-05,-0.002277677738455,-0.00123651567514127,-4.51442641207223e-05,-0.00170296327815045,-0.000267745550109666,1.00952467123605e-05,-0.000513042736427494,0.000144698074842076,-0.000807205204687023,-1.23884669047669e-05,0.00136823266965802,5.99387307964605e-06,-0.00307870720164427,-0.000107998587546732,-0.00113307970591281,0.00022774237184997,-1.63362746139484e-05,-0.00389529833108959,-0.000525015312752508,-0.000103614694199727
"10:26270756:G:A",-0.00206834766112696,-0.00173785122745507,-0.00646743510149106,-0.000579737385474566,-0.000576540816542348,-0.0014480574351321,-0.000398842357057561,0.000168747770855404,-0.000766768001237761,-0.000127272254989208,-0.00101345321522661,-0.000327984735484677,-0.00266317406187877,-0.000903912826927922,-0.00010566107937926,-0.000544241745457974,-0.001438351365604,-0.00150746984634331,-0.000904294962417396,-0.00140093462651159,-0.000621595618758519,-0.000640216079040634,0.331708121899557,-0.000230898980319694,-0.000127272254989208,-0.00353262566690749,-0.00168228619261246,-0.000164404405529339,-0.000136003034522325,0.00222937092356634,0.000161921889461958,-0.00168228619261246,-0.000544241745457974,-0.00123155235004369,-0.000640216079040634,-0.00087536192928539,-0.00150746984634331,-0.00224890915985831,-0.00218801146796999,-0.00133332006210374,-0.000326781418958255,-0.00247112137411687,-0.00500564670521175,-0.000127272254989208,0.000175704655480224,-0.000621595618758519,0.00222937092356634,-5.18668922238064e-05,-0.00233296275702433,-0.00266317406187877,-0.000904294962417396,-0.00353262566690749,0.000422317180277521,-0.000127272254989208,-0.000640216079040634,-0.00168228619261246,-0.000904294962417396,0.00222937092356634,-8.08388773281266e-05,0.000175704655480224,-0.00028306881681317,8.10916290499009e-05,-0.00077072596347838,-0.00182481367899445,-0.000301323500539574,-0.000250779205589691,-0.00266317406187877,-0.000962349387785721,-0.00627082973018833,-0.00077072596347838,-0.000440524116097407,-0.00627082973018833,-8.89499368348368e-05,-0.000648656760276811,-0.00140093462651159,-0.000715459509049499,-0.00435549384988132,-0.00156460900631039,-0.00617809788548795,-0.00157845128439593,-0.000715459509049499,-0.0110567247221796,-0.00140093462651159,-0.00617809788548795,-0.000715459509049499,-0.0110567247221796,-0.00224890915985831,-0.00663532399073175,-0.0110567247221796,-0.00435549384988132,-0.00025205594974409,-0.00617809788548795,-0.0110567247221796,-0.00435549384988132,-0.00140093462651159,-0.00224890915985831,-0.00150746984634331,-0.00101345321522661,-1.46853430882388e-05,-0.00339716168830329,-0.00266317406187877,-0.00627201259691956,-0.00247112137411687,-0.000588545768734683,-0.000600720298486124,-0.0110567247221796,-0.00517167623279668,-0.00150746984634331,-0.00368408321207614,-0.00157845128439593,-0.000579737385474566,-0.000735428890576095,-0.000440524116097407,-0.00150746984634331,-0.00339716168830329,-0.00266317406187877,-0.00368408321207614,-0.000159025778910582,-0.0119017597768374,-0.000785423684394715,-0.000544241745457974,-0.00182481367899445,-0.00028306881681317,-0.0068792876618331,-0.00249602607099852,-0.00150746984634331,-0.00368408321207614,-0.000413184946472356,-0.00166479630111294,-2.48959674857829e-05,-0.000164404405529339,-0.00991711802455786,-0.00580768755137573,-0.00224890915985831,-0.00368408321207614,-0.013927819417761,-1.392828331781e-06,-0.00368739746310887,5.73906906984334e-05,-0.00454512058792522,5.45144313868207e-06,-0.000388315571621334,-0.00150746984634331,-0.000345277102499431,-0.00162291952239091,-0.0105884980779827,-0.0011149217965567,-1.46853430882388e-05,-0.00166479630111294,-0.00544648567235928,-0.00217373876629079
"10:26271166:G:A",4.7330999572992e-06,-6.07590448531425e-05,-0.000222839613003956,-5.37604202222042e-05,-0.0034601215021226,-0.000990265806832369,-2.84174008013949e-05,-0.00026146795813986,-0.00122878305081819,7.90448171654745e-05,0.000112268120373571,-0.000257674786769968,6.65331888098919e-05,4.73567397536456e-05,-0.000144840842821736,-0.000122759906771464,-0.000945176171883055,4.73309995996374e-06,-0.000148344773870157,-3.70833018958905e-05,-0.00161869007604842,-7.25715984817299e-05,-0.000230898980319694,0.120229259689234,7.90448171654745e-05,-5.1047870317511e-05,2.10697272287064e-05,2.95754322268138e-05,-0.000118899449229382,-0.000230898980320582,-0.000877380992288401,2.10697272287064e-05,-0.000122759906771464,-0.0025301700442828,-7.25715984817299e-05,-0.00323838407113453,4.73309995996374e-06,-0.00105109562422534,-0.000310446505745077,-5.64139303884659e-05,4.05870909414574e-06,-0.00220190964992906,-0.000915370355011547,7.90448171654745e-05,-0.000942833147677291,-0.00161869007604842,-0.000230898980320582,4.91812519705093e-05,-1.37794909722544e-05,6.65331888098919e-05,-0.000148344773870157,-5.1047870317511e-05,-0.000877380992288401,7.90448171654745e-05,-7.25715984817299e-05,2.10697272287064e-05,-0.000148344773870157,-0.000230898980320582,7.03695922839032e-05,-0.000942833147677291,4.73567397545338e-05,9.34507250258676e-05,-0.0058732522483238,2.89623691847041e-05,7.62769302031785e-05,-0.00343133284024777,6.65331888098919e-05,-0.00336495159666317,4.27760551700018e-05,-0.0058732522483238,-0.00326364443103166,4.27760551700018e-05,-0.000144840842821736,-0.00120404195342694,-3.70833018958905e-05,-0.00265498816493182,-0.00199371779598767,-3.56779031864818e-05,1.75500835641884e-06,-0.00185444024183745,-0.00265498816493182,-0.00128701715068136,-3.70833018958905e-05,1.75500835641884e-06,-0.00265498816493182,-0.00128701715068136,-0.00105109562422534,-0.00580311239954767,-0.00128701715068136,-0.00199371779598767,-5.1047870317511e-05,1.75500835641884e-06,-0.00128701715068136,-0.00199371779598767,-3.70833018958905e-05,-0.00105109562422534,4.73309995818738e-06,0.000112268120373571,-1.22452725630495e-05,-0.000118815066276312,6.65331888098919e-05,2.66940112769731e-05,-0.00220190964992906,-0.00251148899690357,-0.00342737953971906,-0.00128701715068136,-3.84737115384226e-05,4.73309995818738e-06,-0.00206604930377008,-0.00185444024183745,-5.37604202222042e-05,-0.00332367917990961,-0.00326364443103166,4.73309995818738e-06,-0.000118815066276312,6.65331888098919e-05,-0.00206604930377008,5.47716852459246e-05,-0.00130548067987757,4.73567397545338e-05,-0.000122759906771464,2.89623691847041e-05,4.73567397545338e-05,1.54668908187716e-05,0.000196576362950118,4.73309995818738e-06,-0.00206604930377008,-7.50686557946523e-05,-3.42572729321589e-05,-0.00273903887006455,2.95754322268138e-05,0.000111341768760376,-0.000121194773163857,-0.00105109562422534,-0.00206604930377008,3.36016452679999e-05,7.97275796582397e-06,-0.000119817927466848,0.000112268120373571,-0.00470324093023411,-9.12664691998799e-06,-0.000116774900020822,4.73309995818738e-06,1.11124590267409e-05,-0.00234158837923903,-0.000585647182054672,-0.00201088750076917,-1.22452725630495e-05,-3.42572729321589e-05,-0.00138046781195733,-7.87119216285603e-05
"10:26271744:T:C",-9.37251535404471e-06,-0.000246265249291611,-0.00314013460070761,7.65792582884117e-05,-0.00184889389673248,-0.000397365555367291,-0.00206991960849301,-7.85188206968712e-05,1.14271418381051e-05,0.00264171824309933,0.000355193600083403,-0.00184996712976115,-0.000115059396882167,-8.1265805382813e-05,-0.0019041243508422,0.000168673845361234,-0.00020832933536985,-9.37251535315653e-06,0.0001438808951022,5.45940810656731e-05,-0.000159719534038594,-0.00170393677077563,-0.000127272254989208,7.90448171654745e-05,0.111320249362139,-0.00186332624051921,-3.4301765380107e-05,-5.18023926820987e-05,-0.00198880176605964,-0.000127272254989208,-0.000152152133031436,-3.4301765380107e-05,0.000168673845361234,-0.00110416459010576,-0.00170393677077563,-0.0017388147052122,-9.37251535315653e-06,4.92661880331369e-05,1.60044040544705e-05,-0.00152626986241788,-1.69110973233799e-05,-0.00368862176505491,-0.00142234032256194,0.00264171824309933,-0.000209609113710485,-0.000159719534037706,-0.000127272254989208,-0.00331081313432247,1.87157746305289e-05,-0.000115059396882167,0.0001438808951022,-0.00186332624051921,-0.000152152133031436,0.00264171824309933,-0.00170393677077563,-3.4301765380107e-05,0.0001438808951022,-0.000127272254989208,-0.00129157305220584,-0.000209609113710485,-0.000331036447803967,-0.000168075008232904,0.000156617474283749,-0.00160704437303583,-0.00013677563267489,-0.00389740015915674,-0.000115059396882167,-0.00024068998334581,0.000246072080002602,0.000156617474283749,-0.000255531506945239,0.000246072080002602,-0.00186312462478355,2.34813776796017e-05,5.45940810656731e-05,0.000148571311216372,-0.000322991158840047,-7.47196858474908e-05,0.000221307953034433,-0.00145640513623224,0.000148571311216372,-0.00477094373292797,5.45940810656731e-05,0.000221307953034433,0.000148571311216372,-0.00477094373292797,4.92661880331369e-05,-0.000854302552738773,-0.00477094373292797,-0.000322991158840047,-0.00186332624051921,0.000221307953034433,-0.00477094373292797,-0.000322991158840047,5.45940810656731e-05,4.92661880331369e-05,-9.37251535404471e-06,0.000355193600083403,-2.25074482038679e-05,-0.00342101252073146,-0.000115059396882167,0.000245362534218696,-0.00368862176505491,0.000154199631789531,-0.00186985758254732,-0.00477094373292797,5.71989812865326e-05,-9.37251535404471e-06,-0.000303183798538775,-0.00145640513623224,7.65792582892999e-05,-0.0018203911675041,-0.000255531506945239,-9.37251535404471e-06,-0.00342101252073146,-0.000115059396882167,-0.000303183798538775,-9.72538849852711e-05,-0.00387507715182078,-8.1265805382813e-05,0.000168673845361234,-0.00160704437303583,-0.000331036447803967,0.000216358518650317,-0.00339121294184341,-9.37251535404471e-06,-0.000303183798538775,0.000105821466859446,-0.0018776045186657,-4.46420897901589e-05,-5.18023926820987e-05,-0.00412164704786822,-0.00192413623799137,4.92661880331369e-05,-0.000303183798538775,0.000223441649007672,-2.48985011133129e-05,0.000163598702026313,-0.00020458050028882,-0.00087889251031914,9.59935315414384e-06,-0.00219777699336277,-9.37251535404471e-06,-0.00234963909614194,0.000107059042137259,-0.000917674117390188,-0.00139168922683197,-1.1657050906777e-05,-0.0018776045186657,-0.00381482800404775,0.000112369162585502
"10:26273569:G:A",4.37155594568139e-06,-0.00197036972175724,-0.00299718281718242,-4.97872455724746e-05,-0.00298077985158685,0.000184311624181088,-0.0019072381376839,-0.00347817737796952,-0.00163602407956098,-0.00186332624051921,-0.00320623853404811,-0.00451212562543368,6.01745884427629e-05,4.30381000935398e-05,-0.000136393763634501,-0.000115292575204151,0.000150595226958483,4.37155594656957e-06,-0.00155605582574658,-3.42417091570013e-05,-0.00183728502175118,-6.74582584352379e-05,-0.00353262566690749,-5.1047870317511e-05,-0.00186332624051921,0.171708362202768,1.92428818337476e-05,2.70220775657748e-05,-0.000111373435487394,-0.00353262566690749,-0.000208514367414647,1.92428818337476e-05,-0.000115292575204151,6.36135732943188e-05,-6.74582584352379e-05,-0.00276121365708981,4.37155594656957e-06,-3.15905477474843e-05,-0.00104395542751234,-5.22952838073465e-05,-0.00159078773158594,8.40172650145021e-05,-0.00111257139776111,-0.00186332624051921,0.000151614602273309,-0.00183728502175118,-0.00353262566690749,4.46895682006954e-05,-0.000154277310222994,6.01745884427629e-05,-0.00155605582574658,0.000454610060431904,-0.000208514367414647,-0.00186332624051921,-6.74582584352379e-05,1.92428818337476e-05,-0.00155605582574658,-0.00353262566690749,6.36135732943188e-05,0.000151614602273309,4.3038100094428e-05,8.40172650145021e-05,-0.00145665684072416,-0.00242253153615479,-0.00226576129080769,-0.00022309840697865,6.01745884427629e-05,9.76328395463355e-06,-0.000297793733060825,-0.00145665684072416,-9.03629735748979e-06,-0.000297793733060825,-0.000136393763634501,-0.00427501729056434,-3.42417091570013e-05,-0.00139318511416242,-0.00217987810735476,-3.29229653512897e-05,-0.000238592271766258,-0.000761109896595613,-0.00139318511416242,-0.00283037333800706,-3.42417091570013e-05,-0.000238592271766258,-0.00139318511416242,-0.00283037333800706,-3.15905477474843e-05,0.000127834014255868,-0.00283037333800706,-0.00217987810735476,-0.00417723215796517,-0.000238592271766258,-0.00283037333800706,-0.00217987810735476,-3.42417091570013e-05,-3.15905477474843e-05,4.37155594568139e-06,-0.00320623853404811,-0.00295282173791556,-0.000111478187557523,6.01745884427629e-05,-0.000287862380407677,8.40172650145021e-05,-0.00357133098590978,-0.00294901164598649,-0.00283037333800706,-3.5546985174939e-05,4.37155594568139e-06,-0.00211773366462431,-0.000761109896595613,-4.97872455724746e-05,-0.00284645099543113,-9.03629735748979e-06,4.37155594568139e-06,-0.000111478187557523,6.01745884427629e-05,-0.00211773366462431,-0.00210216400786578,-0.00289854399352674,-0.00193522946360591,-0.000115292575204151,-0.00242253153615479,4.3038100094428e-05,-0.000209057214529906,0.000171942050252838,4.37155594568139e-06,-0.00211773366462431,-6.9835069826496e-05,-0.0034069283819349,-0.00237154238780679,2.70220775657748e-05,-0.00464608550718904,-0.000113597272007659,-3.15905477474843e-05,-0.00211773366462431,-0.000256673502380789,-0.00264685663509123,-0.000112447546737116,0.000100444127010491,-1.8478984940451e-05,-8.30074343571852e-06,-0.00010950689096223,4.37155594568139e-06,-0.00260587700292803,-0.00374731639671744,-0.00541250858374687,0.000156748235656146,-0.00295282173791556,-0.0034069283819349,-0.00317308351109435,-7.33059353077437e-05
"10:26275270:C:T",-2.14350637772753e-06,0.000467889306689173,-0.000199990223338276,2.04679613950987e-05,3.82241195131527e-05,-0.000464744049441634,1.0426605403957e-05,-0.00168228619261157,2.98450158169317e-05,-3.4301765380107e-05,-4.7268480264151e-05,9.25279941794699e-05,-2.74904783204022e-05,-1.95545265020414e-05,5.17472240701977e-05,4.65737659727239e-05,-0.000437434638220324,-2.14350637683935e-06,-5.8437144712542e-05,1.43389289801732e-05,-5.87671521481425e-05,2.7411560169277e-05,-0.00168228619261246,2.10697272287064e-05,-3.4301765380107e-05,1.92428818337476e-05,0.00232537009617584,-1.23904191742241e-05,4.23683668877572e-05,-0.00168228619261246,-0.000371106577227387,0.00205388993281996,4.65737659727239e-05,-2.92724335579919e-05,2.7411560169277e-05,2.00180074019229e-05,-2.14350637683935e-06,1.30653618430898e-05,-0.00108668899647402,2.16644779129638e-05,-3.0274984919032e-06,-3.9194511509244e-05,2.79801029705595e-05,-3.4301765380107e-05,-0.000437434638220324,-5.87671521481425e-05,-0.00168228619261246,-2.03947845598407e-05,5.08393166676058e-06,-2.74904783204022e-05,-5.8437144712542e-05,1.92428818337476e-05,-0.000371106577227387,-3.4301765380107e-05,2.7411560169277e-05,0.00205388993281996,-5.8437144712542e-05,-0.00168228619261246,-2.92724335579919e-05,-0.000437434638220324,-1.95545265011532e-05,-3.9194511509244e-05,-5.1922710959218e-05,-1.32209019030327e-05,-3.20258793911066e-05,3.51690616646749e-05,-2.74904783204022e-05,-5.20744414549412e-05,8.40384490734536e-05,-5.1922710959218e-05,-4.17580504423753e-05,8.40384490734536e-05,5.17472240719741e-05,4.01032424628411e-05,1.43389289801732e-05,-5.19227109601061e-05,0.000630924506344499,1.37058518845379e-05,6.79458036536573e-05,-5.58137423380956e-05,-5.19227109601061e-05,0.000108069964319668,1.43389289801732e-05,6.79458036536573e-05,-5.19227109601061e-05,0.000108069964319668,1.30653618430898e-05,0.000304663089861101,0.000108069964319668,0.000630924506344499,1.92428818337476e-05,6.79458036536573e-05,0.000108069964319668,0.000630924506344499,1.43389289801732e-05,1.30653618430898e-05,-2.14350637772753e-06,-4.7268480264151e-05,4.38989509099486e-06,4.47604172375549e-05,-2.74904783204022e-05,8.35948484487758e-05,-3.9194511509244e-05,-4.3666975921397e-05,2.94369903635072e-05,0.000108069964319668,1.49647211040715e-05,-2.14350637772753e-06,0.000586708120603241,-5.58137423380956e-05,2.04679613950987e-05,2.06774937865362e-05,-4.17580504423753e-05,-2.14350637772753e-06,4.47604172375549e-05,-2.74904783204022e-05,0.000586708120603241,-2.29760244234711e-05,9.7904754928102e-05,-1.95545265011532e-05,4.65737659727239e-05,-1.32209019030327e-05,-1.95545265011532e-05,5.23841846042927e-05,-8.55245711397501e-05,-2.14350637772753e-06,0.000586708120603241,2.85419301500056e-05,1.30653618430898e-05,-1.08106461826907e-05,-1.23904191742241e-05,5.47007744460259e-05,4.34551953771845e-05,1.30653618430898e-05,0.000586708120603241,6.9167095938738e-05,-3.61447029373352e-06,4.52217622877171e-05,-4.7268480264151e-05,-2.56098794686466e-05,2.97704116292152e-06,4.38211353683826e-05,-2.14350637772753e-06,-6.26065557174371e-06,-6.59067668733471e-05,6.66679351528643e-05,-7.76907668491589e-05,4.38989509099486e-06,1.30653618430898e-05,5.61129832155061e-05,3.01882872415504e-05
"10:26279307:A:G",-3.14406621626517e-06,-0.000360558456226734,0.000102300106441966,2.87357713304459e-05,-0.00158128235770505,0.000188249608886082,1.47238832095553e-05,-0.000147151909682286,-0.00259195116941058,-5.18023926820987e-05,-7.18652968023648e-05,0.000118929802136236,-4.09125606761762e-05,-2.88783458888275e-05,-0.00166662826071828,6.35133708914992e-05,0.000203060066459315,-3.14406621448882e-06,0.00240308920207966,2.02930042849658e-05,-0.00123753848379859,3.8173484258941e-05,-0.000164404405529339,2.95754322268138e-05,-5.18023926820987e-05,2.70220775657748e-05,-1.23904191742241e-05,0.0285055528436411,-0.0016192654814855,-0.000164404405530227,0.000173229679848674,-1.23904191742241e-05,6.35133708914992e-05,-4.36861197403715e-05,3.8173484258941e-05,-0.00173913853934682,-3.14406621448882e-06,-0.00248220278542011,0.0001380443443324,3.04039355860652e-05,-0.00154029852601667,-5.91183569866871e-05,3.89538802263445e-05,-5.18023926820987e-05,0.000202417358035945,-0.00123753848379859,-0.000164404405530227,-3.01634273176532e-05,7.22006821352039e-06,-4.09125606761762e-05,0.00240308920207966,2.70220775657748e-05,0.000173229679848674,-5.18023926820987e-05,3.8173484258941e-05,-1.23904191742241e-05,0.00240308920207966,-0.000164404405530227,-4.36861197412597e-05,0.000202417358035945,-2.88783458888275e-05,-0.000775613780775508,0.00194665634021529,-1.96629058439868e-05,-0.00102088241297249,-0.000387135011697737,-4.09125606761762e-05,-0.00134686919163052,-0.000206461657590751,0.00194665634021529,-0.00139172635552853,-0.000206461657590751,-0.00171549945771332,-0.00252609452164521,2.02930042849658e-05,0.00155332647929018,-0.000497319290857057,1.93957690095559e-05,-0.000193192701718026,-0.00109267676556168,0.00155332647929018,0.000135970567557209,2.02930042849658e-05,-0.000193192701718026,0.00155332647929018,0.000135970567557209,-0.00248220278542011,-0.00306994336244504,0.000135970567557209,-0.000497319290857057,2.70220775657748e-05,-0.000193192701718026,0.000135970567557209,-0.000497319290857057,2.02930042849658e-05,-0.00248220278542011,-3.14406621448882e-06,-7.18652968023648e-05,6.21467394079644e-06,6.11371460523813e-05,-4.09125606761762e-05,-0.000196795027639141,-5.91183569866871e-05,0.00149513624644459,-0.001600782751221,0.000135970567557209,2.11784200843113e-05,-3.14406621448882e-06,-0.000458707707748474,-0.00109267676556168,2.87357713304459e-05,-0.00167236504227031,-0.00139172635552853,-3.14406621448882e-06,6.11371460523813e-05,-4.09125606761762e-05,-0.000458707707748474,-0.0011523010523149,0.000124858190791777,-2.88783458888275e-05,6.35133708914992e-05,-1.96629058439868e-05,-2.88783458888275e-05,-0.000211135083725722,-0.000135143444040864,-3.14406621448882e-06,-0.000458707707748474,3.97238177987091e-05,1.8486480030333e-05,-1.58317910159411e-05,0.00264341612012231,0.000888602150906692,-0.00169173931275957,-0.00248220278542011,-0.000458707707748474,-0.000210851341951646,-5.31148930882352e-06,6.17429564631067e-05,-0.000565563514101086,-0.000213321384896936,4.16241504463954e-06,5.99010784139153e-05,-3.14406621448882e-06,-9.43998012825631e-06,0.00142780556123778,-8.44026514794649e-05,-0.000958979557343476,6.21467394079644e-06,1.8486480030333e-05,7.52530848560085e-05,4.19729134932822e-05
"10:26280250:A:G",-0.00236582674334951,-0.000612462596889962,-0.00702813348676568,-0.00493374251561995,-0.00308493155483891,-0.000336055374384081,-6.26636606888553e-05,-0.000155677067221305,-0.000356073115234778,-0.00198880176605964,-0.00330224173750082,-0.00313391582997191,0.000129271515576512,-0.001077525798312,0.000791338975830946,-0.0002717704995856,-0.000459357694226892,0.000956249202989312,-4.22215585764718e-05,-0.00123445032700875,-0.00137772879578524,-0.00129301564307838,-0.000136003034522325,-0.000118899449229382,-0.00198880176605964,-0.000111373435487394,4.23683668877572e-05,-0.0016192654814855,0.185479346366778,-0.000136003034522325,-0.000976145029156328,4.23683668877572e-05,-0.0002717704995856,0.000135949126708113,-0.00129301564307838,-0.00453508530514046,0.000956249202989312,-0.00149029440267157,-0.00382119163456629,-0.00121834705778223,-0.000152401489983411,-0.000111052291226876,-0.00325197707032032,-0.00198880176605964,-0.000460614718508445,-0.00137772879578435,-0.000136003034522325,-0.00356045699009044,-3.00137281854518e-05,0.000129271515576512,-4.22215585764718e-05,-0.000111373435487394,-0.000976145029156328,-0.00198880176605964,-0.00129301564307838,4.23683668877572e-05,-4.22215585764718e-05,-0.000136003034522325,-1.77042544944328e-05,-0.000460614718508445,-0.00147682123572856,-0.0019183333106465,-9.18202020088188e-05,-0.000487289913733591,3.55474344333473e-05,-0.0012082383364147,0.000129271515576512,-0.000112321884325972,0.00105836106384105,-9.18202020088188e-05,-7.74638847431675e-05,0.00105836106384105,-0.000885058780633941,-0.000456572383081166,-0.00123445032700875,-9.98663650761955e-05,-0.000153397366849717,-7.61667121844667e-05,0.000952694279920507,0.00016966416054931,-9.98663650761955e-05,-0.00671657119511071,-0.00123445032700875,0.000952694279920507,-9.98663650761955e-05,-0.00671657119511071,-0.00149029440267157,-0.00267154863348473,-0.00671657119511071,-0.000153397366849717,-0.000111373435487394,0.000952694279920507,-0.00671657119511071,-0.000153397366849717,-0.00123445032700875,-0.00149029440267157,0.0009562492029902,-0.00330224173750082,-0.00173263569311111,-0.00080539195599183,0.000129271515576512,0.00103281248988596,-0.000111052291226876,-0.000171513090267084,-0.00300814744974609,-0.00671657119511071,-8.1374954286062e-05,0.0009562492029902,-0.000265104660746474,0.00016966416054931,-0.00493374251561995,-0.00276900129118474,-7.74638847431675e-05,8.70151004317421e-06,-0.00080539195599183,0.000129271515576512,-0.000265104660746474,4.44899626179662e-05,-0.0068408188318525,-0.00291274732486269,-0.0002717704995856,-0.000487289913733591,-0.00147682123572856,0.000942028509245851,0.000343886628059842,8.70151004317421e-06,-0.000265104660746474,-0.00603073119558584,-0.00149029440267157,-0.00254518829537886,-0.0016192654814855,-0.000934767225496458,-0.00237396429573522,-0.00149029440267157,-0.000265104660746474,-0.00217563411414456,-0.00198182728166696,-0.000953810330361016,-0.000334011178294347,-0.00821936844755422,-0.00246770546659825,-0.00118601671609042,8.70151004317421e-06,-0.000771279800066971,-0.00252577263107323,-0.00325385076366969,0.000135405319587889,-0.00173263569311111,-0.00149029440267157,-0.00546938535567598,-0.00132422308019287
"10:26280561:T:G",-0.00206834766112696,-0.00173785122745507,-0.00646743510149106,-0.000579737385474566,-0.000576540816542348,-0.0014480574351321,-0.000398842357057561,0.000168747770855404,-0.000766768001237761,-0.000127272254989208,-0.00101345321522661,-0.000327984735484677,-0.00266317406187877,-0.000903912826927922,-0.00010566107937926,-0.000544241745457974,-0.001438351365604,-0.00150746984634331,-0.000904294962417396,-0.00140093462651159,-0.000621595618758519,-0.000640216079040634,0.00222937092356634,-0.000230898980320582,-0.000127272254989208,-0.00353262566690749,-0.00168228619261246,-0.000164404405530227,-0.000136003034522325,0.331708121899559,0.000161921889461958,-0.00168228619261246,-0.000544241745457974,-0.00123155235004369,-0.000640216079040634,-0.00087536192928539,-0.00150746984634331,-0.00224890915985831,-0.00218801146796999,-0.00133332006210374,-0.000326781418958255,-0.00247112137411687,-0.00500564670521175,-0.000127272254989208,0.000175704655480224,-0.000621595618758519,0.00222937092356634,-5.18668922238064e-05,-0.00233296275702433,-0.00266317406187877,-0.000904294962417396,-0.00353262566690749,0.000422317180277521,-0.000127272254989208,-0.000640216079040634,-0.00168228619261246,-0.000904294962417396,0.00222937092356634,-8.08388773281266e-05,0.000175704655480224,-0.00028306881681317,8.10916290499009e-05,-0.00077072596347838,-0.00182481367899445,-0.000301323500539574,-0.000250779205589691,-0.00266317406187877,-0.000962349387785721,-0.00627082973018833,-0.00077072596347838,-0.000440524116097407,-0.00627082973018833,-8.89499368348368e-05,-0.000648656760276811,-0.00140093462651159,-0.000715459509049499,-0.00435549384988132,-0.00156460900631039,-0.00617809788548795,-0.00157845128439593,-0.000715459509049499,-0.0110567247221796,-0.00140093462651159,-0.00617809788548795,-0.000715459509049499,-0.0110567247221796,-0.00224890915985831,-0.00663532399073175,-0.0110567247221796,-0.00435549384988132,-0.00025205594974409,-0.00617809788548795,-0.0110567247221796,-0.00435549384988132,-0.00140093462651159,-0.00224890915985831,-0.00150746984634331,-0.00101345321522661,-1.46853430882388e-05,-0.00339716168830329,-0.00266317406187877,-0.00627201259691956,-0.00247112137411687,-0.000588545768734683,-0.000600720298486124,-0.0110567247221796,-0.00517167623279668,-0.00150746984634331,-0.00368408321207614,-0.00157845128439593,-0.000579737385474566,-0.000735428890576095,-0.000440524116097407,-0.00150746984634331,-0.00339716168830329,-0.00266317406187877,-0.00368408321207614,-0.000159025778910582,-0.0119017597768374,-0.000785423684394715,-0.000544241745457974,-0.00182481367899445,-0.00028306881681317,-0.0068792876618331,-0.00249602607099852,-0.00150746984634331,-0.00368408321207614,-0.000413184946472356,-0.00166479630111294,-2.48959674857829e-05,-0.000164404405529339,-0.00991711802455786,-0.00580768755137573,-0.00224890915985831,-0.00368408321207614,-0.013927819417761,-1.392828331781e-06,-0.00368739746310887,5.73906906984334e-05,-0.00454512058792522,5.45144313868207e-06,-0.000388315571621334,-0.00150746984634331,-0.000345277102499431,-0.00162291952239091,-0.0105884980779827,-0.0011149217965567,-1.46853430882388e-05,-0.00166479630111294,-0.00544648567235928,-0.00217373876629079
"10:26280724:G:C",-0.00215528059365777,-0.000783072740697666,0.00129187267705611,-0.00280591291012566,-0.00117630228036791,-0.00604542083798787,-0.000835159780821826,0.000368377511829721,-0.00146978654932051,-0.000152152133031436,0.000662249414737914,0.000761853328991702,-0.00488759202499534,-0.00122539764609808,-0.000618766991879127,-0.00356079229390005,-0.000678652372210209,-0.00465530284991811,-0.000987884869569466,-0.00437658102608385,-0.00157006880569632,0.000174397342698196,0.000161921889461958,-0.000877380992288401,-0.000152152133031436,-0.000208514367414647,-0.000371106577227387,0.000173229679848674,-0.000976145029156328,0.000161921889461958,0.295585030501834,-0.000371106577227387,-0.00356079229390005,-0.00247128964319465,0.000174397342698196,-0.00134822917922106,-0.00465530284991811,-0.00141226086594859,0.00162858567367996,0.000316423498159857,-0.00975011510058366,-0.00090925173303269,-0.00113568202104242,-0.000152152133032324,-0.000678794405814642,-0.00157006880569632,0.00016192188946107,-0.00838449142071074,-0.000403583565074861,-0.00488759202499534,-0.000987884869569466,-0.000208514367414647,-0.00081886885579685,-0.000152152133032324,0.000174397342698196,-0.000371106577227387,-0.000987884869569466,0.00016192188946107,-0.000591589643738288,-0.000678794405814642,-0.00118746763503985,-0.000128104949068231,-0.00235561255483452,-2.14629969725877e-05,-0.00842719638070877,-0.00170492445750847,-0.00488759202499534,-0.00305097373983809,-0.00977555134227437,-0.00235561255483452,-0.000867763950048062,-0.00977555134227437,-0.00119763722808885,-0.00174253673649849,-0.00437658102608474,-0.00194897719582654,-0.00179114802697544,-0.00155708036761482,-0.00692845152525967,-0.00230505573016027,-0.00194897719582654,0.00138948040026055,-0.00437658102608474,-0.00692845152525967,-0.00194897719582654,0.00138948040026055,-0.00141226086594859,-0.00715272283555057,0.00138948040026055,-0.00179114802697544,-0.00143940332216719,-0.00692845152525967,0.00138948040026055,-0.00179114802697544,-0.00437658102608474,-0.00141226086594859,-0.004655302849919,0.000662249414737914,-0.00246435834780367,0.000912907222333281,-0.00488759202499534,-0.00666223582343139,-0.00090925173303269,-0.00378114687805597,-0.00149620943159379,0.00138948040026055,-0.00166831891673613,-0.004655302849919,-0.00141015517785048,-0.00230505573016027,-0.00280591291012566,-0.000963022513514211,-0.000867763950048062,-0.00013679712877579,0.000912907222333281,-0.00488759202499534,-0.00141015517785048,-0.00716032118791166,-0.000972792676728673,0.000304990629441448,-0.00356079229390005,-2.14629969725877e-05,-0.00118746763503985,-0.00753932862782936,-0.00424575612327738,-0.00013679712877579,-0.00141015517785048,-0.00178509888821488,7.14092500775365e-05,-0.00659207676567419,0.000173229679848674,-0.00644005794666569,-0.00199634077977295,-0.00141226086594859,-0.00141015517785048,-0.00861749789457633,-0.001437536789334,-0.000873913951922489,0.000420561136457387,-0.00313965944026906,-0.00274540016447311,0.000684234372609893,-0.00013679712877579,-4.99243265759119e-05,-0.00222538564438857,-0.00283714865497098,-0.000778967293228572,-0.000776398302114067,7.14092500775365e-05,-0.00092493034316421,-0.00179002502643666
"10:26281195:C:G",-2.14350637772753e-06,0.000467889306689173,-0.000199990223338276,2.04679613950987e-05,3.82241195131527e-05,-0.000464744049441634,1.0426605403957e-05,-0.00168228619261157,2.98450158169317e-05,-3.4301765380107e-05,-4.7268480264151e-05,9.25279941794699e-05,-2.74904783204022e-05,-1.95545265020414e-05,5.17472240701977e-05,4.65737659727239e-05,-0.000437434638220324,-2.14350637683935e-06,-5.8437144712542e-05,1.43389289801732e-05,-5.87671521481425e-05,2.7411560169277e-05,-0.00168228619261246,2.10697272287064e-05,-3.4301765380107e-05,1.92428818337476e-05,0.00205388993281996,-1.23904191742241e-05,4.23683668877572e-05,-0.00168228619261246,-0.000371106577227387,0.00232537009617584,4.65737659727239e-05,-2.92724335579919e-05,2.7411560169277e-05,2.00180074019229e-05,-2.14350637683935e-06,1.30653618430898e-05,-0.00108668899647402,2.16644779129638e-05,-3.0274984919032e-06,-3.9194511509244e-05,2.79801029705595e-05,-3.4301765380107e-05,-0.000437434638220324,-5.87671521481425e-05,-0.00168228619261246,-2.03947845598407e-05,5.08393166676058e-06,-2.74904783204022e-05,-5.8437144712542e-05,1.92428818337476e-05,-0.000371106577227387,-3.4301765380107e-05,2.7411560169277e-05,0.00205388993281996,-5.8437144712542e-05,-0.00168228619261246,-2.92724335579919e-05,-0.000437434638220324,-1.95545265011532e-05,-3.9194511509244e-05,-5.1922710959218e-05,-1.32209019030327e-05,-3.20258793911066e-05,3.51690616646749e-05,-2.74904783204022e-05,-5.20744414549412e-05,8.40384490734536e-05,-5.1922710959218e-05,-4.17580504423753e-05,8.40384490734536e-05,5.17472240719741e-05,4.01032424628411e-05,1.43389289801732e-05,-5.19227109601061e-05,0.000630924506344499,1.37058518845379e-05,6.79458036536573e-05,-5.58137423380956e-05,-5.19227109601061e-05,0.000108069964319668,1.43389289801732e-05,6.79458036536573e-05,-5.19227109601061e-05,0.000108069964319668,1.30653618430898e-05,0.000304663089861101,0.000108069964319668,0.000630924506344499,1.92428818337476e-05,6.79458036536573e-05,0.000108069964319668,0.000630924506344499,1.43389289801732e-05,1.30653618430898e-05,-2.14350637772753e-06,-4.7268480264151e-05,4.38989509099486e-06,4.47604172375549e-05,-2.74904783204022e-05,8.35948484487758e-05,-3.9194511509244e-05,-4.3666975921397e-05,2.94369903635072e-05,0.000108069964319668,1.49647211040715e-05,-2.14350637772753e-06,0.000586708120603241,-5.58137423380956e-05,2.04679613950987e-05,2.06774937865362e-05,-4.17580504423753e-05,-2.14350637772753e-06,4.47604172375549e-05,-2.74904783204022e-05,0.000586708120603241,-2.29760244234711e-05,9.7904754928102e-05,-1.95545265011532e-05,4.65737659727239e-05,-1.32209019030327e-05,-1.95545265011532e-05,5.23841846042927e-05,-8.55245711397501e-05,-2.14350637772753e-06,0.000586708120603241,2.85419301500056e-05,1.30653618430898e-05,-1.08106461826907e-05,-1.23904191742241e-05,5.47007744460259e-05,4.34551953771845e-05,1.30653618430898e-05,0.000586708120603241,6.9167095938738e-05,-3.61447029373352e-06,4.52217622877171e-05,-4.7268480264151e-05,-2.56098794686466e-05,2.97704116292152e-06,4.38211353683826e-05,-2.14350637772753e-06,-6.26065557174371e-06,-6.59067668733471e-05,6.66679351528643e-05,-7.76907668491589e-05,4.38989509099486e-06,1.30653618430898e-05,5.61129832155061e-05,3.01882872415504e-05
"10:26283071:G:A",9.25845221910748e-06,0.000559639945824308,-0.000691716582455371,-0.000120299352297515,-0.00156723407436576,-0.00396504252214314,-6.62473600492319e-05,-0.000570325462557086,-0.000447031946275267,0.000168673845361234,0.000251445012962037,-0.0102431353326482,0.000147684704940865,0.000104073736880927,-0.000326727969287788,0.00689776813711784,-0.00358679220067692,9.25845222177202e-06,0.000261526472590923,-8.25986422841041e-05,-0.000559876084462729,-0.00925368822685968,-0.000544241745457974,-0.000122759906771464,0.000168673845361234,-0.000115292575204151,4.65737659727239e-05,6.35133708914992e-05,-0.0002717704995856,-0.000544241745457974,-0.00356079229390005,4.65737659727239e-05,0.151581143713336,-0.00154918203604915,-0.00925368822685968,-0.00193514679480256,9.25845222177202e-06,-7.72719882666806e-05,-0.000303658070263779,-0.000125192552974163,2.21838661396134e-06,0.000207756761527733,-0.000164245645297711,0.000168673845361234,-0.00359385400632917,-0.000559876084462729,-0.000544241745457974,0.000107769947444325,-3.22159527712529e-05,0.000147684704940865,0.000261526472590923,-0.000115292575204151,-0.00356079229390005,0.000168673845361234,-0.00925368822685968,4.65737659727239e-05,0.000261526472590923,-0.000544241745457974,0.000155576292173443,-0.00359385400632917,0.000104073736880927,0.000207756761527733,0.000221066523694802,-0.000623621537560126,0.000167753273875526,-0.00143919938659032,0.000147684704940865,-0.000459089499214471,-0.00560046060178543,0.000221066523694802,-0.000451832606151115,-0.00560046060178543,-0.000326727969288676,-0.00045310926818054,-8.25986422841041e-05,0.00022106652369569,0.000761402953400214,-7.99503502610932e-05,-0.00560090420241277,0.000289481699782712,0.00022106652369569,-0.000747625862889123,-8.25986422841041e-05,-0.00560090420241277,0.00022106652369569,-0.000747625862889123,-7.72719882666806e-05,-0.00245832578983318,-0.000747625862889123,0.000761402953400214,-0.000115292575204151,-0.00560090420241277,-0.000747625862889123,0.000761402953400214,-8.25986422841041e-05,-7.72719882666806e-05,9.25845222088384e-06,0.000251445012962037,-2.92634612923948e-05,-0.0102735498266968,0.000147684704940865,-0.00560046850629803,0.000207756761527733,0.000172382138787341,-0.00154245472957015,-0.000747625862889123,-8.52173678893564e-05,9.25845222088384e-06,0.000713636827753383,0.000289481699782712,-0.000120299352297515,-0.00171662537129702,-0.000451832606151115,9.25845222088384e-06,-0.0102735498266968,0.000147684704940865,0.000713636827753383,0.000119112837611901,-0.000735591956575909,0.000104073736880927,0.00689776813711784,-0.000623621537560126,0.000104073736880927,-0.00580074656152796,0.000449883208873736,9.25845222088384e-06,0.000713636827753383,-0.000166478443959228,-7.72719882666806e-05,5.66237208854403e-05,6.35133708914992e-05,-0.000916122076404235,-0.000275472334102744,-7.72719882666806e-05,0.000713636827753383,-0.00560086979315599,1.56053260447209e-05,0.000194261693390096,0.000251445012962037,-0.00476859435145816,-2.32566450133476e-05,-0.00968399520773566,9.25845222088384e-06,-0.00318985777022096,0.000293143277713348,-0.00454183195580082,-0.000889676076956114,-2.92634612923948e-05,-7.72719882666806e-05,-0.000685127747392933,-0.000173025061353194
"10:26283418:A:C",-7.93025695156047e-06,-0.00113602938090196,-0.0013418590852865,6.8145799775543e-05,-0.00144377349931091,-0.00235814024223835,3.36854174358692e-05,-0.00123086249035076,9.28999828220256e-05,-0.00110416459010576,-0.000165886846481555,0.00030143195880683,-9.56700129810528e-05,-0.00550406896755273,0.000166857176989055,-0.00154918203604915,-0.00240680867829912,-7.93025694889593e-06,0.000116017808278635,4.8157590843978e-05,0.000834575227084855,9.09599277401085e-05,-0.00123155235004369,-0.0025301700442828,-0.00110416459010576,6.36135732943188e-05,-2.92724335579919e-05,-4.36861197403715e-05,0.000135949126708113,-0.00123155235004369,-0.00247128964319465,-2.92724335579919e-05,-0.00154918203604915,0.104357795626334,9.09599277401085e-05,-0.00133101367177435,-7.93025694889593e-06,4.34537633378085e-05,0.000356144746494813,7.25658671054674e-05,-1.37050464346089e-05,-0.000648835567795381,9.30644557319837e-05,-0.00110416459010576,-0.00240972816153651,0.000834575227084855,-0.00123155235004369,-7.12936799533992e-05,1.64498931063406e-05,-9.56700129810528e-05,0.000116017808278635,6.36135732943188e-05,-0.00247128964319465,-0.00110416459010576,9.09599277401085e-05,-2.92724335579919e-05,0.000116017808278635,-0.00123155235004369,-0.000102335452150548,-0.00240972816153651,-6.81606334760332e-05,-0.000137490861872536,-0.00171809729488359,-4.92098595863411e-05,-0.000112658220857931,-0.00142262518819347,-9.56700129810528e-05,0.00049493000939016,-0.00106543461332631,-0.00171809729488359,0.000317718052872173,-0.00106543461332631,0.000166857176989055,0.000127353911501871,4.8157590843978e-05,-0.00170795105262744,-0.001081616029321,4.58202421169673e-05,-0.00106679633038098,-0.000198267403688668,-0.00170795105262744,-0.00139753929146202,4.8157590843978e-05,-0.00106679633038098,-0.00170795105262744,-0.00139753929146202,4.34537633378085e-05,-0.00243340993687635,-0.00139753929146202,-0.001081616029321,6.36135732943188e-05,-0.00106679633038098,-0.00139753929146202,-0.001081616029321,4.8157590843978e-05,4.34537633378085e-05,-7.93025695067229e-06,-0.000165886846481555,1.38805086100646e-05,0.000148852253405884,-9.56700129810528e-05,-0.00106545915732603,-0.000648835567795381,-0.00167219136215557,-0.0014639228339508,-0.00139753929146202,-0.00267527292125269,-7.93025695067229e-06,-0.00109968234480196,-0.000198267403688668,6.8145799775543e-05,-0.0014127810995177,0.000317718052872173,-0.00440022119095484,0.000148852253405884,-9.56700129810528e-05,-0.00109968234480196,-8.0935258819359e-05,-0.00136786343986905,-6.81606334760332e-05,-0.00154918203604915,-4.92098595863411e-05,-6.81606334760332e-05,-0.000981266852150497,-0.000303963021841547,-0.00440022119095484,-0.00109968234480196,9.51426431106128e-05,4.34537633378085e-05,-0.000375669049978988,-4.36861197403715e-05,-0.000245134453487061,0.000140063119564715,4.34537633378085e-05,-0.00109968234480196,-0.00106668952839151,-1.33831130524342e-05,0.000150564564703082,-0.000165886846481555,-0.000689615784293274,8.64377961740104e-06,0.000145362656752468,-0.00440022119095484,-0.00321004158641891,-0.00175072800943621,-0.000703299063461671,0.00145435193343157,1.38805086100646e-05,4.34537633378085e-05,-0.00127051593224792,0.000101224003258515
"10:26283769:C:T",5.99387307875787e-06,-0.00158298623305519,-0.00160030914170584,-7.08858157070225e-05,-0.000139393111386887,0.000321249602546647,-3.77553222685734e-05,-0.000596948280337628,-0.00237829789513899,-0.00170393677077563,0.000144698074842076,0.00348665865508124,8.61206858981944e-05,6.13152793693672e-05,-0.00127491224727194,-0.00925368822685968,0.000280405485095336,5.99387308053423e-06,-0.000137160476697318,-4.87207263146772e-05,0.000171950264951093,0.00363068422672974,-0.000640216079040634,-7.25715984817299e-05,-0.00170393677077563,-6.74582584352379e-05,2.7411560169277e-05,3.8173484258941e-05,-0.00129301564307838,-0.000640216079040634,0.000174397342698196,2.7411560169277e-05,-0.00925368822685968,9.09599277401085e-05,0.0981117282585844,-7.54005886616227e-05,5.99387308053423e-06,-4.51442641207223e-05,7.18334018730005e-05,-0.00456956875230841,4.29356139264314e-06,0.000120568703008139,-0.000854222015867379,-0.00170393677077563,0.000280469836247743,0.000171950264951093,-0.000640216079040634,6.3620455703628e-05,-0.00120944676708667,8.61206858981944e-05,-0.000137160476697318,-6.74582584352379e-05,0.000174397342698196,-0.00170393677077563,0.00363068422672974,2.7411560169277e-05,-0.000137160476697318,-0.000640216079040634,9.09599277401085e-05,0.000280469836247743,6.13152793693672e-05,0.000120568703008139,-0.00015326000081739,-0.00316312022261211,9.84073395731144e-05,-0.000140551341668349,8.61206858981944e-05,0.000151533850449859,-0.000254748244987724,-0.00015326000081739,0.000121110519509138,-0.000254748244987724,-0.00123391252121241,-0.00230924547084221,-4.87207263146772e-05,-0.00015001856575747,-0.00175662995008263,-0.00418480490436846,-0.000304896364907048,-0.00173434580134568,-0.00015001856575747,-0.00180429161371443,-4.87207263146772e-05,-0.000304896364907048,-0.00015001856575747,-0.00180429161371443,-4.51442641207223e-05,-0.00135036689739199,-0.00180429161371443,-0.00175662995008263,-6.74582584352379e-05,-0.000304896364907048,-0.00180429161371443,-0.00175662995008263,-4.87207263146772e-05,-4.51442641207223e-05,5.99387307964605e-06,0.000144698074842076,-1.63362746139484e-05,0.00174773638524428,8.61206858981944e-05,-0.000919953935213158,0.000120568703008139,-0.000173804656471432,-0.000107958082684156,-0.00180429161371443,-5.04805406738029e-05,5.99387307964605e-06,-0.00170296327815045,-0.00173434580134568,-7.08858157070225e-05,-7.72186396416075e-05,0.000121110519509138,5.99387307964605e-06,0.00174773638524428,8.61206858981944e-05,-0.00170296327815045,7.06810257984358e-05,-0.00172505968015901,6.13152793693672e-05,-0.00925368822685968,-0.00316312022261211,6.13152793693672e-05,-0.000291650963796908,-0.000830322930446492,5.99387307964605e-06,-0.00170296327815045,-9.90217482934597e-05,-0.00389529833108959,3.38017912975275e-05,3.8173484258941e-05,-0.002277677738455,-0.00123651567514127,-4.51442641207223e-05,-0.00170296327815045,-0.000267745550109666,1.00952467123605e-05,-0.000513042736427494,0.000144698074842076,-0.000807205204687023,-1.23884669047669e-05,0.00136823266965802,5.99387307964605e-06,-0.00307870720164427,-0.000107998587546732,-0.00113307970591281,0.00022774237184997,-1.63362746139484e-05,-0.00389529833108959,-0.000525015312752508,-0.000103614694199727
"10:26283933:C:T",-0.00220398543996048,2.72585843905659e-05,-0.00065472639695674,-0.00121981942261851,-5.06731429146257e-05,-0.00181749598710734,-0.00249240015350516,-0.000818187581202778,-0.000960376157271625,-0.0017388147052122,9.62064159573117e-05,-0.00115229652595517,6.02223316343853e-05,4.3807352736458e-05,-0.00476434016990357,-0.00193514679480256,-0.00218781308727722,4.58734286290507e-06,-0.00135342427219065,-3.72813843156905e-05,-0.000702217742303723,-7.54005886616227e-05,-0.00087536192928539,-0.00323838407113453,-0.0017388147052122,-0.00276121365708981,2.00180074019229e-05,-0.00173913853934682,-0.00453508530514046,-0.00087536192928539,-0.00134822917922106,2.00180074019229e-05,-0.00193514679480256,-0.00133101367177435,-7.54005886616227e-05,0.156219366338493,4.58734286290507e-06,-3.43621837490815e-05,-0.000934983677583823,-5.77293711732096e-05,-0.00215612205472215,8.20128181651114e-05,-0.00308785586527005,-0.0017388147052122,-0.00132634245655039,-0.000702217742303723,-0.00087536192928539,4.54198456436572e-05,-1.3546361649297e-05,6.02223316343853e-05,-0.00135342427219065,-0.00276121365708981,-0.00134822917922106,-0.0017388147052122,-7.54005886616227e-05,2.00180074019229e-05,-0.00135342427219065,-0.00087536192928539,-0.00151842213387532,-0.00132634245655039,4.38073527373462e-05,-0.0030184279076142,4.2866060636193e-05,-0.000494805604678739,-0.00152462991290925,-0.00539959511835164,6.02223316343853e-05,-0.000553633657918162,-0.00366958617033042,4.2866060636193e-05,-0.000504502460320744,-0.00366958617033042,-0.0049278795340193,-0.0010855362516704,-3.72813843156905e-05,5.66943950888188e-05,0.00019627188284943,-3.58282783015085e-05,-0.00360697533990129,-0.00151679666223004,5.66943950888188e-05,-0.000562570078700197,-3.72813843156905e-05,-0.00360697533990129,5.66943950888188e-05,-0.000562570078700197,-3.43621837490815e-05,-0.00640697184182581,-0.000562570078700197,0.00019627188284943,-0.00276121365708981,-0.00360697533990129,-0.000562570078700197,0.00019627188284943,-3.72813843156905e-05,-3.43621837490815e-05,4.58734286290507e-06,9.62064159573117e-05,-0.00180620593590408,-0.000974493799344778,6.02223316343853e-05,-0.00365328799620546,8.20128181651114e-05,5.17736629985777e-05,-5.94602720642712e-05,-0.000562570078700197,-3.87216522144129e-05,4.58734286290507e-06,0.000158092262390497,-0.00151679666223004,-0.00121981942261851,0.00190039516734064,-0.000504502460320744,4.58734286290507e-06,-0.000974493799344778,6.02223316343853e-05,0.000158092262390497,-0.0016887049836658,-0.000599681866509272,4.38073527373462e-05,-0.00193514679480256,-0.000494805604678739,4.38073527373462e-05,-0.00343986459289836,0.000149154094369663,4.58734286290507e-06,0.000158092262390497,-0.00111762947469973,-3.43621837490815e-05,2.47184404802425e-05,-0.00173913853934771,-0.000260949407179911,-0.00233079643946787,-3.43621837490815e-05,0.000158092262390497,-0.00336985557799618,-0.00207678792657795,-0.000808483779778157,-0.00350181921851433,-0.00118450478658971,-0.00214043687410115,-0.00116569231387764,4.58734286290507e-06,-0.00152224544653823,8.81032453028396e-05,-2.22799962572573e-05,-0.00124853175617634,-0.00180620593590408,-3.43621837490815e-05,-0.000242747757930317,-8.20990921637232e-05
