"","2:171035382:A:G","2:171038611:T:C","2:171039569:C:G","2:171040987:A:G","2:171042999:A:G","2:171043344:A:G","2:171043406:A:G","2:171043536:G:C","2:171045592:T:C","2:171046443:C:T","2:171046638:A:C","2:171046875:T:G","2:171046985:T:C","2:171047645:G:A","2:171048202:G:A","2:171051441:G:A","2:171051590:G:A","2:171056232:G:A","2:171057682:C:T","2:171057881:T:G","2:171059679:G:A","2:171060783:G:A","2:171062114:C:T","2:171062234:A:G","2:171070785:T:G","2:171071959:G:T","2:171073400:A:G","2:171076494:T:C","2:171077088:A:G","2:171077133:C:T","2:171077242:G:A","2:171077934:G:A","2:171078067:T:A","2:171078393:T:A","2:171078637:G:A","2:171079608:G:A","2:171083854:G:C","2:171084515:G:A","2:171085082:C:T","2:171086070:T:C","2:171087718:G:A","2:171089475:A:G","2:171091961:T:C","2:171093133:G:C","2:171097275:G:A","2:171097984:G:A","2:171100088:G:A","2:171100443:A:T","2:171101265:A:G","2:171102202:G:C","2:171102414:A:G","2:171102878:C:G","2:171105318:A:G","2:171105513:G:A","2:171105884:A:G","2:171107326:C:A","2:171107601:G:A","2:171110317:G:A","2:171112236:C:T","2:171112591:A:G","2:171113820:A:G","2:171114191:A:G","2:171116340:A:T","2:171122395:A:C","2:171124423:G:A","2:171125881:C:T","2:171130621:C:T","2:171131208:T:C","2:171131302:G:T","2:171131521:T:C","2:171131925:C:A","2:171132593:T:C","2:171135046:A:G","2:171135088:C:T","2:171135246:T:C","2:171135269:C:T","2:171135382:C:T","2:171135616:C:T","2:171137276:G:A","2:171138681:C:T","2:171141660:A:G","2:171142059:G:A","2:171143415:T:C","2:171143895:C:T","2:171146169:A:G","2:171146563:T:C","2:171146709:T:C","2:171146717:G:T","2:171147674:G:C","2:171149193:G:A","2:171151866:T:A","2:171152779:C:T","2:171155623:G:A","2:171157105:A:G","2:171157730:C:T","2:171160838:G:A","2:171161233:A:T","2:171163644:T:C","2:171166390:C:T","2:171168178:A:G","2:171168484:C:T","2:171176267:G:T","2:171178231:G:A","2:171178597:C:A","2:171179150:A:T","2:171179290:T:C","2:171181409:A:C","2:171182368:A:G","2:171182841:A:T","2:171183622:T:C","2:171185884:T:C","2:171189496:A:G","2:171190784:C:T","2:171193528:C:G","2:171195544:G:T","2:171207796:A:G","2:171207868:T:C","2:171208179:T:C","2:171208242:A:C","2:171208283:G:A","2:171208304:A:C","2:171208441:C:T","2:171210842:T:C","2:171211133:C:T","2:171213446:G:C","2:171219055:A:G","2:171219260:C:T","2:171220151:T:G","2:171221207:A:G","2:171224134:C:T","2:171224420:A:G","2:171225167:C:T","2:171225304:G:A","2:171225546:T:G","2:171225841:A:G","2:171226245:T:C","2:171226869:C:G","2:171227618:C:T","2:171230398:G:A","2:171231423:T:C","2:171232957:C:T","2:171232983:G:A","2:171236031:C:T","2:171240024:T:C","2:171242037:A:G","2:171242117:G:A","2:171242804:G:A","2:171243250:A:C","2:171243489:A:G","2:171243601:C:G","2:171245882:C:T","2:171249391:C:G","2:171250045:A:G","2:171251016:A:G","2:171252778:G:A","2:171253722:C:A","2:171262710:A:C","2:171263408:G:A","2:171266438:A:G","2:171269073:G:C","2:171269259:G:C","2:171270157:A:T","2:171272136:G:A","2:171272376:T:G","2:171272608:C:T","2:171272928:G:A","2:171275113:C:G","2:171277360:C:A","2:171277479:T:C","2:171277774:A:T","2:171280553:G:A","2:171281976:A:T","2:171284715:A:C","2:171287710:A:G","2:171288607:C:T","2:171289110:G:A","2:171289235:T:C","2:171290192:C:A","2:171290974:G:A","2:171291744:T:G","2:171291870:T:C","2:171295433:T:C","2:171295563:T:C","2:171298340:C:T","2:171300648:T:A","2:171300861:G:A","2:171303279:A:G","2:171306227:C:T","2:171312272:A:C","2:171312771:G:A","2:171315361:G:A","2:171316627:G:A","2:171316944:G:A","2:171317311:G:A","2:171318013:C:A","2:171318216:A:G","2:171318785:A:G","2:171318816:T:A","2:171318894:A:T","2:171318947:A:G","2:171319043:G:A","2:171320971:G:C","2:171321603:G:A","2:171321679:A:G","2:171322428:T:G","2:171324499:T:C","2:171326478:G:T","2:171326865:G:A","2:171327653:C:T","2:171327683:C:T","2:171329998:C:T","2:171330593:G:A","2:171334460:G:A","2:171337730:G:A","2:171344404:A:G","2:171344922:G:A","2:171345022:T:C","2:171346146:T:G","2:171346700:G:A","2:171347723:G:A","2:171347979:A:G","2:171348094:C:T","2:171351099:A:G","2:171351145:C:T","2:171353397:C:T","2:171353552:A:G","2:171354526:T:A","2:171356492:C:G","2:171361804:A:G","2:171362903:A:G","2:171364634:G:C","2:171367570:T:C","2:171368383:A:G","2:171368703:T:C","2:171370372:A:G","2:171370590:C:G","2:171375773:C:T","2:171380643:T:G","2:171381683:G:A","2:171382362:C:T","2:171386194:G:T","2:171386223:T:C","2:171386859:G:T","2:171387595:G:A","2:171387934:C:G","2:171388630:A:T","2:171389183:A:G","2:171389363:C:T","2:171392992:C:T","2:171393451:C:T","2:171397319:A:G","2:171400275:T:C","2:171400449:T:C","2:171400879:C:T","2:171405483:T:A","2:171406682:A:G","2:171409728:A:G","2:171410364:A:G","2:171415428:A:G","2:171415792:G:A","2:171416966:A:G","2:171417007:A:G","2:171417829:G:A","2:171419216:A:G","2:171421125:G:A","2:171421928:G:A","2:171422330:C:T","2:171424479:G:T","2:171425267:G:A","2:171425401:T:A","2:171425505:C:T","2:171425800:G:C","2:171427078:A:G","2:171429369:T:C","2:171430520:A:G","2:171430701:T:C","2:171431835:C:G","2:171432877:A:G","2:171435002:A:G","2:171438669:G:A","2:171439224:A:G","2:171439564:C:A","2:171439648:A:G","2:171441202:A:G","2:171442033:A:C","2:171442895:C:T","2:171445415:T:C","2:171448075:A:G","2:171448117:T:C","2:171452765:C:T","2:171453105:G:A","2:171454514:A:G","2:171458874:C:T","2:171460433:C:A","2:171460755:C:T","2:171461437:C:G","2:171462691:C:T","2:171463257:A:G","2:171464574:T:C","2:171465483:A:G","2:171466718:C:T","2:171466800:G:A","2:171467521:C:T","2:171469988:C:T","2:171470196:G:C","2:171470319:A:G","2:171470349:G:A","2:171470617:C:A","2:171470880:T:A","2:171472301:C:T","2:171472433:A:G","2:171473135:G:C","2:171473898:A:C","2:171478520:G:A","2:171480693:T:C","2:171481453:T:G","2:171482636:G:C","2:171484059:T:C","2:171484861:G:A","2:171485146:C:T","2:171485766:C:A","2:171488378:A:T","2:171492369:C:G","2:171493831:G:A","2:171495421:G:T","2:171495711:C:T","2:171495900:A:G","2:171497374:A:G","2:171500624:A:G","2:171502432:G:A","2:171502717:G:T","2:171503028:C:T","2:171504336:A:T","2:171506025:A:G","2:171511025:G:T","2:171511937:T:C"
"2:171035382:A:G",0.252913132076037,-7.1418852846783e-05,-0.00174263937275576,7.82434420667499e-05,-1.25506684014454e-05,4.50599635222204e-05,-0.00229381202899415,0.0017186194818315,1.04089365695614e-05,-0.00107611469074875,-0.00174263937275576,2.70831327391363e-05,1.68323685603156e-05,0.000161885371995574,-1.7903192986779e-05,0.0017186194818315,-0.00572591153361302,2.13333900891399e-05,-1.7903192986779e-05,6.16486606714872e-05,-0.00377144043110977,-0.000908806378423499,4.11260322605855e-05,7.71462687083613e-05,-0.0057651772967251,-3.95673837489952e-05,2.13333900900281e-05,8.89737239795352e-06,-2.81134743254086e-05,-0.00262219466861069,-0.000350969083033448,7.23206895676398e-05,-6.424750156242e-05,-0.000291971943907399,-0.00196724952844818,1.04089365695614e-05,-0.0017841002794281,7.93276125454767e-05,-0.000168933874172161,-0.000116569108182141,0.00102883139062993,-0.000823370135313972,0.000126452571479696,-1.11513899581084e-05,-0.000599492005881608,-0.000102514298147227,-0.000206059657600122,-1.7903192986779e-05,-0.000168512234279383,8.76448368272165e-05,-0.00240359911856736,-2.46281179734353e-05,-0.00581436132897473,0.000280310004135309,-0.000981328432471784,-2.32965514594952e-05,-0.00013943930441318,-7.8693623493109e-06,2.70831327391363e-05,-0.00257941987285548,2.42431183865577e-05,0.00110737719301301,-0.00100441158163189,-6.80288588466027e-05,-2.12256641871633e-05,3.42414224165921e-05,-9.50043629543984e-06,4.63402151753556e-05,0.000224270723628628,-1.95546078778364e-05,2.27971278032868e-05,-6.00539304391745e-05,-0.00113101110300562,7.37743505725419e-05,-9.5004362927753e-06,-2.46281179734353e-05,-1.53685808168547e-06,0.000102956554445477,9.48438719969857e-05,-0.00274050467146481,0.000109641933199178,-9.80585567464942e-05,-0.0061630596063198,7.60358572629016e-05,0.000158850761442508,-2.03623067029923e-05,3.97827161684461e-05,1.62784162611729e-05,9.48438719969857e-05,-8.52767409087463e-05,0.000109641933199178,-0.00622967251369744,0.000260968556615282,0.00109798287698215,3.56525764120263e-05,4.37643684652045e-05,-0.00484117488607971,9.18140849313076e-05,-0.00677419122837275,-9.80585567464942e-05,0.000117796285422855,5.42482353678153e-05,0.000346656756944341,-3.35036945084966e-05,3.97827161684461e-05,1.62784162611729e-05,-0.000710575412082193,7.93276125454767e-05,-0.000380192475189389,-0.000806288501981278,0.000103947500044832,-1.81942698880277e-05,-0.000983155536456337,-7.89461959671556e-05,-9.80585567464942e-05,8.2024238095002e-05,-0.00125055480587299,9.68042185069962e-05,-0.00111446145529293,7.36748835006296e-06,0.000129629270906761,-0.000245047389310749,9.07794792173178e-05,0.000119615419786001,-0.000703066097060834,-0.00119636035202575,-0.000394758756686819,-4.13785014012902e-05,7.36748835006296e-06,5.92413570075223e-05,-5.43214606523179e-05,6.04522241385297e-05,1.62784162611729e-05,-0.00176588949725343,-0.00104385663829465,-2.46281179734353e-05,-2.46281179734353e-05,5.5519514858382e-05,-4.13785014012902e-05,-2.46281179734353e-05,3.25637992384387e-05,-1.7903192986779e-05,4.25141335735901e-06,0.000516904975709664,-0.00577379024036873,7.85045373943305e-05,0.000108721681100654,-0.000456994217671536,-9.58713130891908e-05,1.19025076772417e-05,0.000142551362266374,-0.00256004891550354,-4.50668979885549e-05,3.61670669395409e-05,-2.46281179734353e-05,-0.00236506190100449,-0.000922589786619632,4.11260322605855e-05,-0.000718849933214472,-0.00142042139817189,0.000516904975709664,-1.11513899581084e-05,-0.000893987068219637,-3.16847969470402e-05,-4.6654358438758e-06,7.93276125454767e-05,4.37643684652045e-05,6.16486606714872e-05,-4.6654358438758e-06,5.42482353678153e-05,8.03990098141583e-05,-0.00134472866669544,7.93276125454767e-05,-0.0084193646496189,4.24531527150052e-05,-0.000757301773435692,2.27971278032868e-05,-0.000205873916555355,4.76053942000121e-05,-2.81134743254086e-05,-4.6654358438758e-06,-0.00129210707927818,-0.000104783806638586,-6.20112664693195e-05,-0.0025663674575771,-0.00274566935128551,-3.17017324462654e-05,-5.43214606523179e-05,6.16486606714872e-05,7.93276125454767e-05,-0.000102514298145451,-0.00276859890033965,-0.00284830411897818,6.02776263489702e-05,-0.00547070017447204,-0.00282440075350365,-0.00147115694408484,-0.00714977210172396,-0.000612080994651265,5.6775274563492e-05,1.04089365695614e-05,-1.95546078778364e-05,-3.1684796946152e-05,0.000107790182624079,-7.68870400706945e-05,-0.00232811959661028,-5.07710427513075e-05,2.70831327391363e-05,-0.000544627127977648,1.83513512839184e-05,-0.00100710758819922,6.78713100272788e-05,-0.00585965702733215,-3.90983688474122e-05,-7.76938947115724e-05,-7.00847622265854e-05,-8.84762048940502e-05,-4.6654358438758e-06,-2.12256641871633e-05,-0.000639252038998173,8.89737239795352e-06,6.16486606714872e-05,1.62784162611729e-05,-0.00205233149478268,4.63402151753556e-05,-0.00217347339220186,-0.00253657755058256,1.48369395658321e-05,-0.0014883673829722,-4.67821149596759e-05,-0.00217208776362199,7.36748835006296e-06,-2.81134743254086e-05,-5.46931928253613e-05,-0.00262685369974758,-0.000720643772832652,-6.20112664693195e-05,-0.00217428929911545,-9.15756437631643e-05,-0.00574065258430156,0.000138064020958062,0.000261052290134067,-4.13785014012902e-05,-0.00236705825750416,9.48438719969857e-05,-2.81134743254086e-05,-0.000544627127977648,-2.81134743254086e-05,-2.46281179725472e-05,4.50599635222204e-05,-0.00100157454258554,-0.000129270206370435,-9.18470314559272e-05,-0.00666353359566951,0.000151646020810858,-7.485263164142e-05,8.89737239795352e-06,-9.5004362927753e-06,4.50599635222204e-05,8.94339877532957e-06,-4.88462246766019e-05,-1.95546078778364e-05,-5.07710427504193e-05,-3.0918953148884e-06,-0.00248651787376009,-6.25781156138316e-06,-0.00117434131210103,-0.00120382449716416,-0.000544627127977648,-0.00622566440742567,0.000212838046634189,-0.00245131959127232,-0.0067399716203731,8.94339877532957e-06,-0.000235966450446767,8.03990098141583e-05,-0.00135737256678947,-3.77777961624304e-05,-0.00314891514635285,-0.00966692301984562,-0.00337684062445742,-0.00236864388803948,-0.00215268197960228,-0.00159678226119819,-2.37287950284326e-05,-4.13785014012902e-05,2.98559069520365e-05,-0.000732786567928301,-1.53685808168547e-06,0.000318427682933553,-0.000968971462588009,-0.00274566935128551,-9.63672176679253e-05,2.56716824020842e-05,9.38460593804535e-05,-8.74395362115976e-05,-3.95673837489952e-05,-0.00161863524476491,2.84777748458254e-05,-6.92320472159835e-05,0.00110737719301301,9.92727713295949e-05,9.48438719969857e-05,-0.00240411447354116,-1.7903192986779e-05,-0.00090601040790883,0.00019493442244034,-0.000186331282794328,2.4664770222671e-05,1.04089365695614e-05,-0.00100522032801198,-2.81134743254086e-05,-2.81134743254086e-05,2.66452802843986e-06,-0.00419470226322982,4.90020235215383e-05,-1.7903192986779e-05,4.24531527150052e-05,-0.00699407031789168,-2.63602453181022e-05,1.04089365695614e-05,-9.80585567464942e-05,7.36748835006296e-06,2.56716824020842e-05,-0.00682172356638233,-2.63602453181022e-05,-0.000459412118177127,-0.000738490889326648,-0.00664263822375055,2.84777748458254e-05,-1.28225886291133e-05,-0.000350969083033448,-0.00104541571793249,-0.0019541284928497,0.000210865671609106,0.000152022341305624
"2:171038611:T:C",-7.1418852846783e-05,0.783454510455319,0.000100798515688005,-0.00103784493922632,-2.0345057353488e-05,7.92514221581442e-05,-0.0002934649598898,-7.1418852846783e-05,1.82256386720425e-05,-0.00322134577156419,0.000100798515688005,-0.00256916010745911,2.85732146236839e-05,-0.00581388953361106,-3.32912960034903e-05,-7.1418852846783e-05,-0.00157823496802756,3.71209523759575e-05,-3.32912960034903e-05,-0.00175259261462557,6.96149769154886e-05,-0.00439421305632148,7.20786707404386e-05,-0.00117730594976884,-0.00155035595667652,-7.50760706429432e-05,-0.00192837544752322,1.53291677920109e-05,-0.00167480454272884,-0.0105050525636461,-3.65736343823642e-05,-0.000377343817111964,-0.00631329063634567,-0.000167437012001947,-0.00162694126865226,-0.00202494638047934,-0.00326179804575233,-0.00084542870323645,-0.00202028794727305,-0.000602377758456285,-0.00113144144540112,-0.00399065170163837,-0.000938492706528571,-2.18117043937482e-05,-0.017474289134956,-0.000203076201885644,-0.00231204547418962,-3.32912960034903e-05,-0.00113165267822435,-0.00134263739305318,-0.00195595775668167,-4.67206397640751e-05,-0.000721159838449559,7.0248327245892e-05,-0.000993035098049155,-0.00479372076767959,-0.000919675630333572,-1.53434248035822e-05,4.79230051082524e-05,-0.00631713531404365,-0.00185724460862069,-3.32912960034903e-05,-0.00121633452153969,-0.00144698799114096,-0.00149199671907585,-0.00213203815073371,-0.00181655886567444,-0.00119543204704442,-0.00472915883288216,-3.65736343823642e-05,-0.00189671191557572,-0.00111114163924508,-0.00239374600233422,-0.00581313946487239,-0.00235347026563648,-4.67206397640751e-05,-2.97817183181337e-06,5.16395686940285e-05,-0.000834292934989378,-0.000220707150129229,-0.00104085939751819,-0.000891802122699126,-0.00335401516349787,-0.000249840447642313,-0.000976357160023866,-0.00249636981827273,-2.7021456796561e-05,2.9389153795023e-05,-0.000834292934989378,-0.00337044093307348,-0.00104085939751819,1.82256386720425e-05,-0.00324413735208706,-6.7816221677397e-05,-0.000403291672488315,-0.00151194183230086,0.000380797356350548,-0.00372496014521317,-0.0039365306016137,-0.000891802122699126,-0.00552136233554457,9.40501985349229e-05,-0.0132729050839115,-4.8669825291725e-05,-2.7021456796561e-05,2.9389153795023e-05,-0.0027455889464072,-0.00084542870323645,-0.0021312014598811,-0.000132749296644974,-0.0031533652626976,-0.00296600554194448,-0.0152429540864665,-0.000549385446335648,-0.000891802122699126,-0.00345226665570841,-0.00193462658495314,0.000164265814793119,-0.0162246931164751,1.23885953131619e-05,-0.000303856778870681,-0.0045138518556298,-0.00131336617958677,-0.00478462959449821,-0.00965920684345445,-0.00312296138128643,-0.00210686453338926,-7.87890751841047e-05,1.23885953131619e-05,0.000102980876383718,0.00011219189380629,-0.00241371787920297,2.9389153795023e-05,-0.0105620862071043,-0.0139656309120344,-4.67206397640751e-05,-0.00162209246429512,-0.00354659110888367,-7.87890751841047e-05,-0.000156399898066262,-0.000198008219759238,-3.32912960034903e-05,-0.000592174499591813,-0.00047888235268978,-0.00102302329855508,-0.00160395235935518,-0.0026193792422724,-0.00291598814013483,-0.00538977643968686,2.10789600005867e-05,-0.000934135845219508,-0.00475367762287604,-0.00146603519558397,-0.00287407374434512,-4.67206397649633e-05,-0.00142467722804618,-0.00518565024128925,7.20786707404386e-05,-0.00287425807959885,-0.00857618657760817,-0.00047888235268978,-0.000420949874039955,-0.00355147444148418,-6.099217581923e-05,-0.00159739466899911,-0.00084542870323645,-0.000185542026359897,0.000107249296047662,-0.00504103970863667,-0.00105198538630091,0.000138200737167971,-0.0106535223107871,-0.00084542870323645,-0.00798456828009364,-0.0026118848285579,-0.00770508373455225,3.98833259165343e-05,-0.000775418361974367,8.38590330429767e-05,-5.3746446849523e-05,-0.00504103970863667,-0.0108696707238876,-0.00117752113760261,-0.00349063948002115,-0.00242097102135341,-2.97817183092519e-06,-0.000409082053395515,-0.000103596445189424,0.000107249296047662,-0.000845428703235562,-0.00113929577279492,-0.00694643989113075,-0.00227077637245943,-0.00213803159264003,-0.00274423963551307,-0.0144221513035112,-0.00305394356298638,-0.00656708592019761,-0.000128705958974074,-0.000262139170458475,1.82256386720425e-05,-0.00129687125587452,-5.36861157316437e-05,-0.00784836507868381,-0.000786850345718904,-0.00610912954850251,-0.00142190076449378,-9.0986438554097e-05,-3.99052490402951e-05,-0.0136200979052203,-0.0054113621100802,0.000116429698757692,-0.00886264903232981,-7.31952242576384e-05,-0.000208469504795694,-0.000296667153717678,-0.00414155264233429,-9.06832567704186e-06,-0.00343013872856002,-0.00756435984761517,1.53291677920109e-05,-0.0013498987443139,2.9389153795023e-05,-0.0112777958882715,8.15721533253821e-05,-0.000278963036917546,-0.00473349004798873,2.66598301816856e-05,-0.00180611865849034,-9.04692064072066e-05,-0.00180980324951552,-0.00539988826756499,-0.000208899277381214,-0.000145907433716452,-0.00815006793046935,-0.0231867950175242,-0.000119721043181364,0.000105130905200923,5.67459708165075e-05,-0.00870927727361526,-0.00301466147342921,-0.0136706372598461,-7.87890751849929e-05,-0.00821340174882579,0.000160997883056346,-0.000208899277381214,-3.99052490402951e-05,-5.3746446849523e-05,-0.00186841311827024,-0.00103695595408659,-4.05235200489074e-05,-0.000115596859462386,-4.93597549704461e-05,-0.00900915940022617,-0.00961411160441283,-0.00047888235268978,1.53291677928991e-05,-1.85528838620996e-05,-0.00318396965239121,-0.00214557786099689,-9.42241957115897e-05,-3.65736343823642e-05,-0.00010069096581411,-0.00268362653419185,-0.00972841853176609,-1.21822533136751e-05,1.82526481236067e-05,-0.00778766291022581,-3.99052490402951e-05,-0.000502229075842298,-0.000234092962354104,-0.00148864685722749,-0.00325428541809636,-0.00532265416899769,-0.000154754243430588,0.000138200737167971,1.82256386720425e-05,-7.1418852846783e-05,-0.00723754058048742,-0.00178415743071358,-0.00382038200915691,-0.00110659160671567,-0.0016845924749207,-0.00605415112858765,-3.03312238827402e-05,-0.00344795530781905,-0.00344478477083143,-0.00406414752657458,-2.97817183092519e-06,-0.000698453000492982,-0.00863302661048593,-2.97817183092519e-06,-0.00141313406989774,4.52834513309242e-05,-0.000130954879577594,-0.000395771784690524,-7.50760706429432e-05,-0.00198794098400246,-0.00372462349102154,-0.00590509337918999,-3.32912960034903e-05,6.84516590085948e-05,-0.000268997770444201,-0.00789663134597074,-3.32912960034903e-05,-0.00303734520658105,-0.000255092767343257,-0.00129061151219378,-0.00684669021479678,1.82256386720425e-05,-0.00202241367370704,-0.00498390266677884,-0.00362196718569141,3.29232895612819e-06,2.66598301825738e-05,8.45540176248605e-05,-3.32912960034903e-05,-0.00160181689604677,-0.0104917082132236,-7.15541520488472e-05,-0.00227978782203042,-4.46675637961746e-05,-0.00462116432322013,-4.50515243235472e-05,-0.0093240948770168,-0.00165279539954,-0.00991387224608475,-0.000518355530727987,-0.00378854308284415,5.05233786958215e-05,-0.00185434926767236,-3.65736343823642e-05,5.12631763145421e-05,-0.00285570224173437,-0.000536494602806137,-0.00187545054633009
"2:171039569:C:G",-0.00174263937275576,0.000100798515688005,0.486225462874267,-0.000132502810146207,1.10567315676491e-05,-0.000793908987427372,7.90113827311423e-05,-0.00174263937275576,-1.86487142643799e-05,-0.00129283807857483,0.00102589539799336,-4.59796587488626e-05,-3.26478396939223e-05,-0.000285050800025388,-0.000835523120398918,-0.00174263937275576,-0.00146991483216574,-0.00109095115206426,-0.000835523120398918,-0.000103745054489401,-0.0015712997694175,-0.00298004139349217,-7.03968970059421e-05,-0.000872515574375399,-0.00144412898354052,6.03234670624175e-05,-3.84883042618966e-05,-0.00325942873472584,4.12189363405702e-05,-0.00260395402355051,-0.00229032120394557,-0.00131272924112213,-0.000756590188620621,-0.00286567612271416,-0.000446175664864157,-1.86487142643799e-05,-0.00200976258375896,-0.000133886238206316,-0.00444910745986427,0.000168499575529779,-0.00681069759019781,-0.00134381545140894,-0.000220168319912339,1.45356174581224e-05,-0.00662264947997437,-0.00318813006736107,-0.00471271340942359,2.79801029705595e-05,-0.00494561759187739,-0.00129872857492241,-0.00139382685169753,-0.0019786766606007,-0.000376745412173918,0.000199706333848582,-5.03009933678911e-05,-0.000172887733281613,0.000202705943836534,1.02716445979922e-05,-0.00372236510351343,-0.00675607140257961,-4.22751039970137e-05,-0.000835523120398918,-0.00281727342898019,-0.00227897228205176,3.2300767919935e-05,-6.14788721060577e-05,1.23921826977735e-05,-7.71828218599779e-05,-6.58707042937579e-05,-0.00482302980792682,-4.03921539975372e-05,-0.0127888400572118,-0.00330900060231443,-0.000126811500696711,1.23921826986617e-05,3.67127475726647e-05,-0.0033854632717949,-0.00223880604940696,-0.000484042400739071,-0.00060128526479275,-0.000667308509490816,-0.00161826534718923,-0.00271423796228909,-0.00430574676503337,-0.000767236576409758,-6.80867067126556e-05,-6.86530888804882e-05,-2.63327826308668e-05,-0.000484042400739071,0.000126196205487261,-0.000667308509490816,-0.00131411634464929,-0.0059470945026403,5.57318617593339e-05,-0.00120769043558688,-7.38271003930535e-05,-0.000488759532822236,-0.000808370396693014,-0.00290691249205288,-0.00161826534718923,-0.00379321892014417,-9.42048847525356e-05,-0.00589062799651163,-0.00165837345409869,-6.86530888804882e-05,0.000455881585794238,-0.00258816159994968,-0.000133886238206316,-0.00158692119517667,9.53432220400785e-05,-0.000182578911911868,-0.00292637238388505,-0.0121454253421076,0.000118242202095331,-0.00343811699894747,-0.00115864121193443,-0.00503305191227188,-0.000164245645297711,-0.00815696669943833,-0.000238164028726118,-0.000223830212114251,-0.00317681013739524,-0.000876476154044958,-0.000212310643791014,9.21951938481769e-05,-0.00235001831825743,-0.00167469168256851,6.26552398630409e-05,-1.46814710992871e-05,-0.000100635911591596,-0.00076269947707619,-0.000102199102362199,-2.63327826308668e-05,-0.00291061057909303,-0.00304847555139176,3.67127475726647e-05,3.67127475726647e-05,-0.00227328547250849,-0.00221681667482887,3.67127475726647e-05,-5.31524669682426e-05,2.79801029705595e-05,-1.06271150563941e-05,-0.00375663864128839,-0.00110310367474131,-0.000141502390554216,-0.00152747139640663,-0.00172032510572784,0.000142933389605915,-2.0600535166615e-05,-0.00212204808597072,-0.00484302464002706,6.7392599713223e-05,-0.00141518223480919,3.67127475717766e-05,-0.00234100725170627,-0.000166716087779406,-7.03968970059421e-05,-0.00228988726795709,7.51462980730366e-09,-0.00375663864128839,1.45356174581224e-05,-0.000912684926188234,-0.00169040251612795,6.09781872373816e-06,-0.000133886238206316,-7.38271003930535e-05,-0.000103745054489401,6.09781872373816e-06,-0.00358222673216613,-8.86467633067767e-05,-6.85028644733521e-05,-0.000133886238206316,0.000240794722513371,-7.21214623853328e-05,-0.00144048342550551,-4.03921539975372e-05,0.000288854507091152,-7.88335026884468e-05,-0.00178581998805871,6.09781872373816e-06,-0.000112246383122461,0.000154001798658321,9.30644557319837e-05,-0.00358957190585318,-0.0033854632717949,-0.00278539222156304,-0.00199250447129451,-0.000103745054489401,-0.000133886238206316,-0.00615470407462304,-0.00587767865854349,-0.0052434294665753,-0.00256050712453959,-0.000247542173174686,-0.000969545440280051,-0.000662509843362358,5.68859947316369e-05,-0.00183402884280959,-0.00101817048398978,-1.86487142643799e-05,-0.00229032120394557,-0.00015690184101036,0.000912478525798122,0.000115645169734613,-0.00152505206942299,7.46890309359927e-05,-4.59796587488626e-05,-0.00261022993778237,-0.00129294609832353,-0.00195110414784772,-0.000119322037684277,-0.000902566379124892,-0.0026759139638548,-7.47769152491529e-05,0.000103296521344554,-0.0103421182913102,6.09781872373816e-06,3.2300767919935e-05,-0.00617474863170564,-1.66758066191264e-05,-0.00338550945281568,-2.63327826308668e-05,-0.0127277295652357,-0.000607647921607501,-0.00617306560141007,-4.96046046256637e-05,-2.44422457127413e-05,-0.000762845366908849,2.83156309661692e-05,-0.00571652668850575,-0.00112660893522154,4.12189363405702e-05,7.96849918645037e-05,-0.00331946896818192,-0.00177854070901606,9.30644557319837e-05,-0.00175587631807783,0.000137566238582743,-0.00209407677594253,-0.00201991117393163,-0.000567439921951518,6.26552398621527e-05,-0.00706265353933855,-0.000161795628423889,4.12189363405702e-05,-0.00261022993778237,4.12189363405702e-05,3.67127475717766e-05,-7.55141195796227e-05,-0.00303648215720553,-0.00164982944394598,0.000134403472463518,5.05261349070807e-05,-0.000873600708779954,0.000113074609303432,-0.00298041108311775,1.23921826986617e-05,-7.55141195778464e-05,-2.24617044048969e-05,7.2230967696818e-05,3.01291974151852e-05,-0.00167008037468808,4.0438296879941e-06,-0.000223558253201084,-0.000578824158656843,-0.00324077608858175,-0.00133429329617041,-0.00261022993778237,-0.000590114979468481,-0.00251127030453713,-0.00612547817859888,-0.00200778477444175,-0.000238221426831942,-0.000940376390989428,0.000547895183028224,-0.00771568047392268,-0.00174263937275576,-0.00281174964044828,-0.000548224659939756,0.000964269096777493,-0.00260484250352722,-0.00138504752096757,0.000187744284688485,2.5317866718666e-05,6.26552398630409e-05,-4.96046046256637e-05,-0.00111813220099233,2.01133441724011e-06,-0.00260650392555117,-0.00199692879347735,2.01133441724011e-06,-0.000184079401225112,-0.00114764949175505,-0.000160549837141311,0.000128903241229494,6.03234670624175e-05,-0.00456017640227202,-4.78019224345871e-05,-0.00284733871590248,-0.000835523120398918,-0.00094850348136255,-0.000161795628423889,-0.00174674001534969,2.79801029705595e-05,-0.00617721137669758,-0.000163849933889182,-0.00397311972847536,-0.000440457992280763,-1.86487142643799e-05,-0.00208651870857857,-0.00211430211239527,-0.00449805145507742,-0.00138837907455702,-0.00100023019291129,-0.0011843944876393,2.79801029705595e-05,-0.00100076370080426,-5.83062676948742e-05,3.89538802263445e-05,-0.00131411634464929,0.000145658102499446,-0.00229555571349582,-4.41374945747697e-05,-0.0070570406484638,3.89538802263445e-05,-0.00873726925669782,-0.0085876025594942,-0.00283437504343276,-4.78019224345871e-05,1.67023183728077e-05,3.01291974151852e-05,-0.00027383338765663,-0.000209555423506202,-0.000382564502282357,-0.00693713494513304
"2:171040987:A:G",7.82434420667499e-05,-0.00103784493922632,-0.000132502810146207,0.396324352936457,-0.00105179238307951,-0.000101074350635777,-0.00313050337086729,7.82434420667499e-05,-2.55490999716557e-05,-0.000887608804672979,-0.000132502810146207,-6.20356787965903e-05,-0.000883689843854008,-0.000371951599136722,3.76502734749096e-05,7.82434420667499e-05,-0.00117197243499767,-5.25970137044141e-05,3.76502734749096e-05,-0.000138272598054989,-9.25289318587375e-05,-0.00101135435331656,-9.47018782255782e-05,-0.000302147198738112,-0.00113594932352523,8.12632523077284e-05,-0.00201271879974119,-0.000911831673890084,5.48214426769889e-05,-0.000580850220592843,4.0434221880048e-05,-0.000923195752621453,-0.000731724102730702,-0.00184455521270621,0.000154085275014815,-0.00451886090543585,0.000127127823056128,-0.000177609148801494,0.000327334091084985,-0.00148870597864459,-0.00290114673677699,-0.00227858856075613,-0.000255705065698386,1.86713710874642e-05,-0.00288202777237601,0.000206148679287921,0.000398071827317992,3.76502734749096e-05,8.12632523077284e-05,-0.00926271957019864,-0.000961615279747363,-0.00372363835565004,-0.00363342922176813,0.000274656348024038,-0.000109919627859334,-0.000771312859381368,-0.00256388865423762,1.31881037317427e-05,-0.00066356979580906,-0.0115923395283524,-0.000773472406576658,3.76502734749096e-05,-0.00101911617993355,0.000135896063783392,4.32486541637189e-05,-0.00177421335268235,1.59143796851779e-05,-0.000103151079966501,-0.000543629412014468,4.0434221880048e-05,-0.000807386591647585,0.000122490115131768,-0.000201604974191305,-0.000169022638297101,1.59143796869543e-05,4.89709919335723e-05,2.58012551945797e-06,-0.000240637663759813,-0.000101283769618377,-0.00429888475443452,-0.000250092876347807,0.000198683706923219,-0.0050712016057286,-0.000404175052994837,-0.000368938602469449,-0.00575784068998164,-0.00070098961730114,-3.53168015703176e-05,-0.000101283769618377,0.000171243670008536,-0.000250092876347807,-2.55490999716557e-05,-0.00604420387244886,7.5256310442029e-05,-0.000794600534584688,-0.000505239677012881,-0.000626326323042825,-0.00020953948038116,-0.00076725686240664,0.000198683706923219,-0.00136442591483377,-0.000700070932905916,-0.00190064917229815,6.38468856850594e-05,-0.00070098961730114,-3.53168015703176e-05,-0.00370101626775909,-0.000177609148801494,-9.98460106584886e-05,-0.00105152726016744,-0.00122839969592548,-0.00223855359701464,-0.00246914520042552,0.000160613352226946,0.000198683706923219,-0.000772035827621309,-0.00109735855937565,-0.000216981807712457,-0.00627950420147272,-2.05000418365131e-05,-0.000293804150932608,-0.012456727542129,-0.000207998775303864,-0.000280620616742056,-0.00632119162083544,-0.00942060512321863,-0.00519764400037737,8.43162792971697e-05,-0.000929295730633051,-0.000134448045061575,0.000112816053399634,-0.000136371182962058,-3.53168015703176e-05,-1.28675653128241e-05,-0.0114968095841199,-0.0015308289231184,4.89709919335723e-05,-0.000128544509021111,8.43162792971697e-05,4.89709919335723e-05,-7.10600333526656e-05,3.76502734749096e-05,-1.53358271273163e-05,0.000153718820609328,-0.000237786973246834,-0.00108904534812293,-0.000248789538409788,-0.00137280321715316,0.00019501226234464,-2.80316410155024e-05,-0.000328789960671649,-0.00399961781362723,9.05241956070668e-05,-0.00421937711720588,4.89709919326842e-05,-0.0034641054667599,-0.00920996043374078,-9.47018782255782e-05,-0.00417161043181657,-0.00101601520092487,0.000153718820609328,1.86713710874642e-05,-0.00708031039476342,6.08043497907218e-05,-0.00420944958919023,-0.000177609148801494,-9.89741747838835e-05,-0.000138272598054989,7.8256703526236e-06,-0.000126530650192969,-0.000179268562943591,-0.00106435372755165,-0.000177609148801494,0.000425798203971262,-0.00108966463863691,-0.00148217321359834,-5.49970715839621e-05,0.000402523607890615,-0.000105204752975929,5.48214426769889e-05,7.8256703526236e-06,-0.00106514571752481,0.000209943563179493,-0.00205963126086317,-0.00422497547500011,2.58012551945797e-06,-0.00543397744302521,0.000112816053399634,-0.000138272598054989,-0.000177609148801494,0.000206148679288809,-0.00121017968513115,-0.00379903115134628,-0.000842569864010656,-0.000958387381419179,-0.000273330986185982,-0.00040692476878057,-0.000553476355384497,0.00010009934822186,-0.0023735498168902,-0.000881066649675688,4.0434221880048e-05,6.08043497924982e-05,-0.000247470863066646,0.000157147270489766,-0.000159078280978164,0.000100099348220972,-6.20356787965903e-05,-0.00360502774317428,-4.77133036351773e-05,-7.36482916252612e-06,-0.000159921964995036,-0.000932896897396063,-0.00113904480910776,-0.00330147216619991,0.000139342205190296,-0.00270051581433339,7.8256703526236e-06,4.32486541637189e-05,-0.00102837132989553,-2.3038723662161e-05,-0.00560309432886186,-3.53168015703176e-05,-0.00208678083542502,-0.00626919279939298,-0.000587217719961508,-6.65979225180635e-05,-0.0073670071330536,-5.97159488071597e-05,-0.00326562603136349,-0.0034552016031224,-2.05000418365131e-05,5.48214426769889e-05,-0.00128160974822222,-0.00559195248990729,-0.00475279364789483,-0.000948659308077637,-0.00549714465548856,0.000187788175074921,-0.000198362272883834,-0.000323490917189417,-0.000625366285953888,8.43162792971697e-05,-0.00844252308445714,-0.000214055922326928,5.48214426769889e-05,4.32486541637189e-05,-0.00133650169411847,4.89709919344605e-05,-0.000101074350636665,3.58883832607404e-05,0.000122490115131768,0.000182235882686399,-0.000749824282378242,-0.00136028683005485,0.000153718820609328,-2.30387236612728e-05,1.59143796869543e-05,-0.000101074350635777,-3.2357256376514e-05,9.68717390499307e-05,4.0434221880048e-05,-0.00120869551523928,5.18852672204417e-06,-0.000954746344508983,1.04920334713654e-05,-0.00112078858770293,-0.00143423577949431,-0.00360502774317428,-0.00349802258316867,0.0002366988385889,-0.000763246912583782,-5.40249561939987e-05,-0.00297567210923066,0.000445938378565991,-0.000179268562943591,-2.55490999716557e-05,7.82434420667499e-05,-0.00280002571286531,-0.00419644403103625,-0.000177609148801494,-0.000942066840867284,0.00014564254135685,0.000217577979131356,3.06429996292934e-05,8.43162792971697e-05,-6.65979225180635e-05,-0.00112501678973853,2.58012551945797e-06,0.00019501226234464,-0.00613599991406488,2.58012551945797e-06,-0.00074170858916478,-0.00469978696345308,-0.000484943109225533,-0.00403204210159647,8.12632523077284e-05,-0.00350763506159968,-6.43295265687627e-05,0.000130878146772595,3.76502734749096e-05,-0.0133431775086583,-0.000101283769618377,-0.00257310206749128,3.76502734749096e-05,-0.00636301156957231,-0.000453114787266173,-0.00188522867463092,-7.96160691507453e-05,-2.55490999716557e-05,-0.00355419158965375,5.48214426769889e-05,5.48214426769889e-05,-1.27092993214006e-05,-3.29150468694195e-05,-0.000992045868935421,3.76502734749096e-05,-0.00137854300474416,-0.00363819839686474,-0.00078634294480473,-0.000885611254499707,0.000198683706923219,-2.05000418365131e-05,-5.97159488071597e-05,-0.00390354551771654,5.18799362376754e-05,-0.00308858514916555,0.000479076291113323,-0.00201321875861549,-6.43295265687627e-05,-0.00109632145033967,4.0434221880048e-05,-0.000901429538865628,-0.000666365277194991,0.000159665675014686,0.00052275427602666
"2:171042999:A:G",-1.25506684014454e-05,-2.0345057353488e-05,1.10567315676491e-05,-0.00105179238307951,0.678582695327525,-0.0033638610379052,-0.000289220497351916,-1.25506684014454e-05,2.81632690146694e-06,-0.00145782257538762,1.10567315676491e-05,-0.00166992647101427,4.47950726112367e-06,3.45533525436537e-06,-5.43692486321135e-06,-1.25506684014454e-05,-0.000183001547682693,5.40129411596979e-06,-5.43692486321135e-06,-0.00118143918010194,8.76859051590628e-06,-0.00178698093606489,8.95897384012301e-06,1.23241376925876e-05,-0.000164597656813648,-1.32246703605787e-05,-0.00185147439302735,-0.00196190649856476,-8.81495894677897e-06,-0.000333683389349471,-5.96344922598746e-06,-0.00139242724204713,-0.00233329514757497,-6.83547271229656e-07,-0.00543521034426497,-0.00240557255343354,-0.0038363215113506,-0.00262132392415015,-0.00137187613034406,-5.16198998514739e-05,-0.00157594507868897,-0.0103947787448817,1.00842676840074e-05,-0.00221128002790216,-0.00817565758461836,-0.000892349601309128,-0.00755982842947844,-5.43692486321135e-06,-1.32246703605787e-05,-0.00061725214824726,-0.00440546165851874,-7.62893005568088e-06,-0.00514604611822467,-0.00247365643493414,-0.00187430546131928,-6.91301711253089e-06,-6.64385384929744e-05,-0.00200196065718572,-0.0030898077640602,-0.00606117149322616,5.96709732203493e-06,-5.43692486321135e-06,-0.00283755835717336,-0.00145163690391126,-0.00398421458248066,-0.0009230178647055,-2.52660730550858e-05,9.65073996095356e-06,-0.00447757087158163,-5.96344922598746e-06,5.68887277019314e-06,-2.18527127326951e-05,-0.00660910271703496,-0.00144070266574836,-0.00222953895627942,-0.00120795520938,-4.09096482023585e-07,-0.00116944525482943,-0.00423041242057742,-0.00846154117841635,1.17630445091166e-05,-4.10471416421032e-05,-0.00153914672794686,-0.00220287031108768,-0.000593275037227947,-0.0025186110458435,8.76859051590628e-06,4.13097569307297e-06,-0.00423041242057742,-0.0031289312650653,1.17630445091166e-05,-0.00240557255343354,-0.00157725307681211,-1.18934530251025e-05,-0.00177681241876648,-0.00300605722732872,-0.000216572336285914,1.25038420994983e-05,-0.00399382494240541,-4.10471416421032e-05,-0.00121684657965471,-0.00405596824143739,-0.00612703927842828,-0.000935738783915951,8.76859051590628e-06,4.13097569307297e-06,-1.53521440049431e-05,-0.00086137162062716,-0.00423920183063675,-0.0040413540855111,1.20767761488949e-05,-0.00249024136580633,-0.00151851403617975,-3.08895788094787e-05,-0.000850967404780079,-0.00213580712448369,-0.000876683359575026,-0.000579174851655928,-0.00562939443570443,-1.25480880512896e-05,-0.000399968365278447,-0.00586435887800185,-0.00134600207856561,1.07743512884895e-05,-0.00602792425697452,1.90023150503649e-05,-3.82576987298933e-05,-1.3915925983099e-05,2.0971838017303e-06,1.11641126947504e-05,-1.93882179209126e-05,-0.00131542010544372,4.13097569307297e-06,-0.000907398119813774,-0.00221049996291267,-7.62893005568088e-06,-7.62893005568088e-06,-0.00557469331145377,-0.000249412247368852,-7.62893005568088e-06,7.45493290210675e-06,-5.43692486321135e-06,-0.000549531289085969,-2.89000821451779e-05,-0.000106900870411764,-0.00676156350394042,1.1819282806691e-05,-1.49275015584038e-05,-0.000661038845394479,-0.00136597697767638,-0.000624053664592061,-0.00309018510460479,-1.53521440040549e-05,-0.00551882201248333,-0.0013445252538391,-0.0019515220750117,-0.00370744311308879,-0.0057502294907712,-0.00391898767416698,-0.00102428139344735,-2.89000821451779e-05,-0.000769507256819679,-0.00403448766342862,-0.00238803226533157,-0.00237945904338854,-0.00086137162062716,-0.00147142951420509,1.13631150790994e-05,-0.00575207257398347,-0.00125129397571921,1.24170185005212e-05,-0.00111913536659092,-0.00086137162062716,-0.00414855870417474,9.1421642220979e-06,-0.0171884602480366,-0.00509177058658583,-0.000571734416261016,-0.000835329707237875,-0.000280454424767207,-0.00575207257398347,-0.00112997371935109,-0.00127742889712401,-0.00125088019549491,-0.00267969871033635,-4.09096482023585e-07,-0.00746762892067387,8.61049314506701e-05,1.13631150790994e-05,-0.000861371620625384,-0.00109148451580854,-0.00332370226086187,-0.00111120094117645,-2.96695390060719e-05,-9.02489258765016e-05,-0.00421351953207028,-0.00227022567267987,-0.00444908885645345,-0.00113882279450994,-0.00154928420862444,-0.00432049966890702,-5.96344922598746e-06,-0.00194051426959696,-0.0020348566059738,-0.00178800816268243,-0.00489017593376584,-0.00963908554596404,-0.00166992647101427,-0.00156883559363941,-0.00328362565406959,-0.00204713261531886,-0.00102597614991939,-0.00186682014805939,-0.00179084542009011,-0.0060133466553367,-0.0036832078484812,-0.00203220829516804,-0.00213325886508731,-0.00328933180699931,-0.000939989312339407,2.46215915034043e-06,-0.0013377235909493,4.13097569307297e-06,-0.00718167214902499,-0.00407342843372671,-0.00497911105093785,6.9918731187002e-06,3.81703614493745e-06,-0.00254928395994813,-0.0131263993232116,-0.00671320652224994,-0.00175017154069224,-8.81495894677897e-06,-0.00295366369887518,-0.00310023020164341,-0.00605604158719286,-0.000280108964075154,-0.00326664470462301,-3.75690271754436e-05,-0.00321486390398107,-0.0123891274504846,-0.000753549384843843,-0.00220828293125752,-0.00337150024834454,-0.000947716367964979,-8.81495894677897e-06,-6.50402588231458e-06,-2.18336863406776e-05,-0.00204834569733592,-0.00781835145761711,-4.97642963459555e-06,-0.00112827822105199,-0.00154678769242622,-1.13848230993696e-05,-0.00165440937659556,-2.89000821451779e-05,2.46215915034043e-06,-0.00197858253546546,-0.001347894090725,-0.00134315980036614,-5.94805244542584e-05,-5.96344922598746e-06,-1.76484670921795e-05,-0.00567249958251814,-0.00574545953938799,-0.00205212310928893,-0.0137147306204248,-0.0056329407538307,-6.50402588231458e-06,-0.00485435534192513,-0.00075662112836028,-0.00133260707696348,-0.00875294360319057,-4.09665481182486e-06,-0.00268681295436402,1.24170185005212e-05,2.81632690146694e-06,-0.000862302296085637,-0.00445400526537387,-0.0164972138571535,1.2389546585112e-05,-0.0101990439355322,-0.00281046687317676,-8.67248840794588e-05,-0.00580774745588197,-1.3915925983099e-05,6.9918731187002e-06,-0.0021975683952169,-4.09096482023585e-07,-3.98606434552917e-05,-0.00379442869832802,-4.09096482023585e-07,-0.00289157730502598,6.23624560081026e-06,-0.00237625790997154,-0.00469619361267881,8.79175634143081e-05,-0.00295121459760495,6.74837830061392e-06,-0.00452451014405142,-5.43692486321135e-06,-0.00213585288107598,-0.000947716367964979,-0.00734558335057711,-5.43692486321135e-06,-0.010122134845616,-0.00266609721011335,-0.00463424275341318,-0.00173166419782955,-0.00240557255343354,-0.00428518612088702,-0.00738878041928004,-8.81495894677897e-06,-0.000671548974935376,3.81703614493745e-06,-0.00209337877404181,-5.43692486321135e-06,-0.00113375919707703,-0.00235491806577093,-8.21408770690368e-06,-0.000472233327171168,-0.000850967404780079,2.0971838017303e-06,-0.00173704693001664,-0.00496665982343858,-8.21408770690368e-06,-0.00168079088156148,-0.000685398850024832,-1.40978738283337e-06,6.74837830061392e-06,-0.00194404086028221,-5.96344922598746e-06,-0.0019892786346114,-0.000714890627415699,-0.000674082352484895,-0.000178873084565545
"2:171043344:A:G",4.50599635222204e-05,7.92514221581442e-05,-0.000793908987427372,-0.000101074350635777,-0.0033638610379052,0.294996636271064,-0.000400099121351083,4.50599635222204e-05,-1.41574725454063e-05,-0.00370149098889794,-0.000793908987427372,-3.51275126790895e-05,-2.45215948710964e-05,-0.000215672348597984,2.16644779129638e-05,4.50599635222204e-05,-0.00121021729708382,-2.91689516691562e-05,2.16644779129638e-05,-7.92543007799296e-05,-0.000953238258244227,-0.00349088745323289,-0.00212439294297262,-0.00052035968678954,-0.00119591374086614,4.69005421033231e-05,-2.91689516682681e-05,-1.25886104234141e-05,3.22088654485242e-05,-0.00390185884341587,2.33753456129193e-05,-0.0037963719601759,8.12066109565635e-05,-0.00262887958608449,7.01624334622508e-05,-1.41574725454063e-05,-0.0127686960313387,-0.000102181276328217,0.000187742317363515,-0.00271134560625352,0.000187742317363515,-0.00306841074393205,-0.000426102718608767,1.15637051534279e-05,-0.00815129309979667,0.000118349906164106,0.00022695546066398,2.16644779129638e-05,4.69005421033231e-05,-0.000122521553263866,-4.4795910305595e-06,2.86184255822164e-05,-0.000657804818952279,0.000156809127963342,-0.00360377038190052,-0.00305165670380259,0.000159237852568772,-0.00347722883608892,-3.51275126790895e-05,-0.000253730241115413,-0.00104053704930518,2.16644779129638e-05,-0.00373942351708401,7.86736910578512e-05,2.51044310441983e-05,-4.6582626252345e-05,9.85767508954183e-06,-5.90845986927491e-05,-0.000314177999918286,2.33753456129193e-05,-0.00107541503433506,7.05732136170312e-05,-0.00626309695019334,-0.000767725744983849,9.85767509131819e-06,-0.00313847018526658,1.59931555643311e-06,-0.000137390017633798,-0.000123221609847235,-0.000523090717709174,-0.000479599897086125,0.000113899177328847,-0.00433550658931026,-9.88229680656261e-05,-0.000213167963932115,8.52992750832726e-06,-0.00220974571813137,-2.02658133652278e-05,-0.000123221609847235,-0.00220891618248409,-0.000479599897086125,-1.41574725454063e-05,-0.00266258459015134,4.32387167110804e-05,-0.000528544130777853,-5.64139303884659e-05,-0.000365426187935114,-0.000120180522651836,2.52958213167176e-05,0.000113899177328847,-0.000158826740418228,-7.16452523752409e-05,-0.00109789798430349,-0.00123804008356743,-0.00220974571813137,-2.02658133652278e-05,5.25413771184091e-05,-0.000102181276328217,-0.000633991208883522,7.48833782102665e-05,-0.000828396069770143,6.38188814772178e-06,-0.000222855604425476,9.22868755122153e-05,0.000113899177328847,-0.000110396135079682,-0.00279929956648761,-0.000125192552973274,-0.000794286646613074,-1.1002487908307e-05,-0.00017000496773889,-0.00152560914208433,-0.000119143467954608,-0.00016053982273867,7.29293985139989e-05,-0.00173652281072023,-0.000102701801259819,4.87607600483386e-05,-0.00121191463188364,-0.00071992738638027,6.47203933645812e-05,-7.80214743576479e-05,-2.02658133652278e-05,-0.000453626321840872,-0.00493492052855693,-0.00184294663902307,2.86184255822164e-05,-0.00205219017849156,4.87607600483386e-05,2.86184255822164e-05,-4.08301794738719e-05,2.16644779129638e-05,-7.77731393419856e-06,8.81454465622156e-05,-0.00165621603728283,-0.000106893992478874,-0.00128511503838524,0.00021036643030925,0.000111708857622794,-1.57093535193553e-05,-0.000468085349291769,-0.00284105964152204,5.25413771201855e-05,-0.00356692657495916,2.86184255822164e-05,-0.00276043063944797,-0.00273214740768335,-0.00418103547540039,-0.00387601502316137,-0.000403248566331449,8.81454465622156e-05,1.15637051534279e-05,-0.00473891219237732,-0.00124569082012371,4.84946335355119e-06,-0.000102181276328217,-5.64139303884659e-05,-7.92543007799296e-05,4.84946335355119e-06,-7.16452523752409e-05,-0.000103275967777705,-0.000405481546518871,-0.000102181276328217,-0.00319936966313605,-5.50563173922214e-05,-0.00950070714871654,-0.00386867400518742,-0.00171771898343653,-6.03981377258478e-05,3.22088654485242e-05,4.84946335355119e-06,-0.000375328460179958,0.00012061105929817,7.25658671054674e-05,-0.00210734679205427,1.59931555643311e-06,2.89118537972755e-05,6.47203933645812e-05,-7.92543007799296e-05,-0.000102181276326441,0.000118349906164994,-0.000582532055605434,-0.000795460135885051,-0.0023365541110616,-0.000705243065141303,-0.00752410635076117,-0.00093184076788333,0.000423385220384986,5.83676715235626e-05,-0.000852188177526081,-1.41574725454063e-05,2.33753456129193e-05,3.58782591094453e-05,-0.000711391694313335,-0.00214177392666315,-0.00177745429586196,5.83676715226744e-05,-3.51275126790895e-05,2.51044310441983e-05,-2.60882842013643e-05,-2.80275740216496e-06,-9.05259015606674e-05,-0.000251245081517304,-0.00332300982775102,8.22937983677718e-05,8.07540931146988e-05,-0.00068663223996257,4.84946335355119e-06,2.51044310441983e-05,-0.00154490371337168,-1.25886104234141e-05,-0.000646808133249799,-2.02658133652278e-05,-0.00174094758747145,-5.90845986927491e-05,-0.000973802092045339,-3.80097943519786e-05,-1.87632592947296e-05,-3.36625222461251e-05,-0.00122402673398803,-0.000809244833205547,-1.10024879091952e-05,3.22088654485242e-05,6.23594375142034e-05,-0.00251245673537692,0.000277529785226882,7.25658671054674e-05,-7.80214743576479e-05,0.000107396504343882,-0.000112661252483548,0.000222750496559954,-0.000365019199920269,4.87607600483386e-05,-0.00251635195974398,-0.000302989439835422,3.22088654485242e-05,2.51044310441983e-05,3.22088654485242e-05,2.86184255822164e-05,-5.77566093191706e-05,-0.00124217431930873,7.05732136170312e-05,0.000105254871568761,3.96292252693442e-05,-0.00170628110434379,8.81454465622156e-05,-1.25886104225259e-05,9.85767509131819e-06,-5.77566093182824e-05,-0.00348954994448292,5.64044088431359e-05,2.33753456129193e-05,5.83676715235626e-05,3.21571201933324e-06,-0.00119643552415205,6.50084938680351e-06,9.38698058092768e-05,-0.00255942815387566,2.51044310441983e-05,-0.000192681910874626,0.000135407491161033,-0.000396542092470753,-0.00442937296077428,-1.64122558325985e-05,0.000254575416860803,-0.000103275967777705,-1.41574725454063e-05,4.50599635222204e-05,-0.003931831377324,-0.00448555936276485,-0.000102181276327329,-0.00613728367140087,8.59964597719198e-05,-0.00284926073194836,2.0858019942338e-05,4.87607600483386e-05,-3.80097943519786e-05,-0.00021378654833093,1.59931555643311e-06,0.000111708857622794,-0.00452780810717002,1.59931555643311e-06,0.000109768704334101,-0.00099393779416701,-0.000439035306079916,0.000100838671910353,4.69005421033231e-05,-0.000184609343576447,-0.00453041397307619,7.70548293234086e-05,2.16644779129638e-05,-0.00334352419819606,-0.000123221609847235,-0.00896682016085748,2.16644779129638e-05,-2.96008297038242e-05,-0.000263474676215125,0.000193714102024956,-0.00115408545135143,-1.41574725454063e-05,-0.00453571773185857,3.22088654494124e-05,3.22088654485242e-05,-6.13767266255394e-06,-1.87632592947296e-05,-0.00102062899007116,2.16644779129638e-05,-0.000840664227085952,-0.0072452471063249,-0.00316434264245036,-1.41574725454063e-05,0.000113899177328847,-1.1002487908307e-05,-3.36625222461251e-05,-0.00285191150612718,3.04039355851771e-05,-0.00476571224695643,0.000271025946428693,-0.00344257990763985,-3.65765168774956e-05,-0.0034082118526424,2.33753456129193e-05,-0.0012007566299026,-0.000340850482777988,-0.000312071498121291,0.000295150183253767
"2:171043406:A:G",-0.00229381202899415,-0.0002934649598898,7.90113827311423e-05,-0.00313050337086729,-0.000289220497351916,-0.000400099121351083,1.26350704483488,-0.00229381202899415,-0.00230835009273278,-0.00520734762787001,7.90113827311423e-05,-0.00237662676237171,-0.000307516078573489,-0.00247708980926031,-0.00020721363963716,-0.00229381202899415,-0.00573347425815118,-0.00108456638826349,-0.00020721363963716,-0.00394779963277259,7.21249289985515e-05,-0.00641044486338949,-0.0107525023927302,-0.00112598923873941,-0.00433431777249238,-0.00333129210959093,-0.000344470529456853,-0.00229122199589371,-0.000200212384494858,-0.00273602351092306,-0.00137479328738799,-0.00166303952174118,-0.00900553793741876,-0.00686304827089712,-0.00554631727340604,-0.0089204066196098,-0.00265688531118702,-0.0049934829326963,-0.00456989421118603,-0.0127438458809279,-0.00617965162746081,-0.00126121454583217,-0.0025983000341312,-0.000119972064908325,-0.0189637903464566,-0.00275757890977424,-0.000316891863956226,0.000188942412962412,-0.00563221542309034,-0.00210242006140904,-0.000547799995088916,-0.00271133730605566,-0.0206726140916729,-0.00350789511048255,-0.000366986810216297,-0.00650466303470054,0.000326934418019231,-0.00178334478185604,-0.00142318856472112,-0.000985169765081118,-0.000255455104452018,7.94406550763682e-05,-0.00278134472471514,-0.0157024383668958,-2.69391780571837e-05,-0.00193394120488222,-0.00129884837370708,-0.00131223954442117,-0.00215034358361921,-0.00544048960348764,-0.00107879462862659,-0.00489848269760707,-0.00214947549601519,-0.0067863020366401,-0.00635732200714356,-0.000391171352330133,-0.00362112990136243,-0.00563129331300249,-0.00276122510489696,-0.000224698515427058,0.000166796851748252,-0.00376226572656835,-0.000109429315699572,-0.00041416321094534,-0.00736881940579304,-0.00311563585434982,-0.002474876729464,-9.60839982875328e-05,-0.00276122510489696,-0.00631135581169762,0.000166796851748252,-0.00427569037760822,-0.00307886710608862,0.000137135740655658,-0.00409325249596248,-0.00200649357026883,-0.00263848957266433,-0.00222775186094104,-0.00968755879348793,-0.00376226572656835,-0.00237618593020272,-0.00563502681494699,-0.00283740744990002,-0.0014594352778925,-0.00392769906914925,0.000168754404120897,-0.000321873836414355,-0.00794746445408112,-0.00246613169724741,-0.000487673833506896,-0.000952747885878402,-0.00836400555457661,-0.00204441215333118,-0.00400102626618537,-0.000156754209071686,-0.00135526759139148,-0.00794663159920894,-0.00392177115173009,-0.0022227905077119,-0.00382217116400252,-0.00141358836225791,-0.00512833008158298,-0.00565072940375577,-0.000709611580933078,-0.00275347538599613,-0.00195901226622608,-0.00193458425929993,-0.00303930114352013,-0.00677838118467822,-0.00528093076542513,-0.000331901176534366,-0.00124263529639812,-9.60839982875328e-05,-0.00179115672860419,-0.00517652910668565,-0.00127513731383377,-0.00462799248148915,-0.00106805793171505,-0.00475677564063659,-0.00599959276410722,-0.00021399227321961,7.94406550763682e-05,-0.000451914417882282,-0.00699361088152006,-0.000190868024239066,-0.00404983754349253,0.000220535452191584,-0.00123552715035746,-0.00364235124698098,-0.00185220923739315,0.000220688874616126,-0.0111815262986115,-0.0033061955100564,-0.00137029828543955,-0.000611540783236997,-0.00753048433637016,-0.0061732021124441,-0.00260594977938489,-0.00851701730330179,-0.00473715783187867,-0.00699361088152006,-0.000742697802503578,-0.00408034733889506,-0.00554138981240726,-0.0107138646919953,-0.00145006611476006,-0.00105973555262828,-0.0052849637716168,-0.00405273157619757,-0.00250675274950574,-0.00178647855084701,-0.00308196804238925,-0.00145006611476006,-0.00624545712056879,-0.00366871603458208,-0.0194542285066284,-0.0021329484338688,-0.00252602443877015,-0.00335423798642775,-0.000319053183616802,-0.00405273157619757,-0.00348547220461803,-0.00176723924372801,-0.00228715501257026,-0.0122359407483899,-0.00362112990136243,-0.00387261754930091,-0.000222399418648322,-0.0052849637716168,-0.00145006611476006,4.27640672207019e-06,-0.00268561643895504,-0.00239708154978802,-0.00858495794090208,-0.00198208300527192,-0.00361398378352273,-0.0101364242441364,-0.00751199544317993,-0.00053224440417754,-0.00105618221697146,-0.00232454011885697,-0.00596844724084011,-9.20172063243463e-05,-0.0125716571398056,-0.00447245758227055,-0.00662813688227315,-0.00199892438174665,-0.00188823642282543,-0.00148370665256436,-0.0108114292496926,-0.000646877913323518,-0.00439367650053368,-0.005341146659263,-0.00736697197796721,-0.00576629009452656,-0.00151742331870297,-0.00256775432359735,-0.0118391528715298,-0.00159522512191757,-0.00150595042152846,-0.00223914275663306,-0.00992493759452717,-9.60839982875328e-05,-0.00324538333402158,-0.00131223954442117,-0.00206071148205522,-0.00594263595808275,-0.00155163163590988,-0.00129119948175394,-0.00261415051795399,-0.00244377874074519,-0.00636837027079418,-0.00726237110515138,-0.00148103110769648,-0.00676569861179832,-0.00279974726706023,-0.0025950130721859,-0.00128908890915858,0.000214138272829345,-0.00657756325768677,-0.00142947326193443,-0.00352657722755945,-0.0123859307928189,-0.00899037436205941,-0.00312313629552685,-0.00726237110515138,-0.00458879847179183,-0.00218929657810341,-0.00347600254817948,-0.0122276331014248,-0.00599869652738683,-0.000867428533370074,-0.00110884334548311,-0.00155265309349861,-0.00586214195673262,-0.0033071011272412,-0.00191108069107981,-0.00150877998400034,-0.00800189255506378,-0.00593354573652682,-0.00333159574272468,-0.00544048960348764,-0.00430280444282927,-0.0035069807583703,-0.00178587131761798,-0.00258623736009067,-0.0048662329477196,-0.00734045053926646,-0.00521822544477502,-0.00547329977658206,-0.00108634767245919,-0.000254577726434224,-0.00234499916958431,-0.00502941571602289,-0.00396776570387125,-0.00141544964555962,-0.00159485175956764,-0.00660746390375078,-0.00326592719180585,-0.00345233023235592,-0.00494379171916126,-0.00613276543335584,-0.00163038230174317,-0.000747632259521236,-0.00499833512577075,-0.00338602521446685,-0.00521039636788423,-0.0100932503922171,-0.0039952546776707,-0.000809489102521432,-0.0105639981758685,4.59218696668984e-06,-0.0104816773214096,-0.0012407653145976,-0.0108378205917794,-0.000753314498703084,-0.00565557036518172,-0.00494523683142267,-0.00636275123383534,-0.00634158746320557,7.94406550763682e-05,-0.00714423515987006,-0.00330270804431176,-0.0107617419842225,7.94406550763682e-05,-0.00762462443139889,-0.00073271927837526,-0.00248033827295346,-0.000662750283471514,-0.0070250503264111,-0.0134041271230525,-0.000360732127975716,-0.00217797847276202,-0.0050175489164821,-0.00583611608379453,-0.00379091262654985,7.94406550763682e-05,-0.0006452008267539,-0.00586468620095815,-0.00935870849768916,-0.00423502832918121,-0.002007938168608,-0.00258355566866042,-0.0033806172718851,-0.00598382999809877,-0.00678161033050895,-0.0151138365704639,-0.00811007571820177,-0.00332043568013862,-0.00193092765225966,-0.00284169963367598,-0.00565927773527264,-0.000876303189022209,-0.00559363071535968,-0.00128863669884804,-0.00687605524180457
"2:171043536:G:C",0.0017186194818315,-7.1418852846783e-05,-0.00174263937275576,7.82434420667499e-05,-1.25506684014454e-05,4.50599635222204e-05,-0.00229381202899415,0.252913132076037,1.04089365695614e-05,-0.00107611469074875,-0.00174263937275576,2.70831327391363e-05,1.68323685603156e-05,0.000161885371995574,-1.7903192986779e-05,0.0017186194818315,-0.00572591153361302,2.13333900891399e-05,-1.7903192986779e-05,6.16486606714872e-05,-0.00377144043110977,-0.000908806378423499,4.11260322605855e-05,7.71462687083613e-05,-0.0057651772967251,-3.95673837489952e-05,2.13333900900281e-05,8.89737239795352e-06,-2.81134743254086e-05,-0.00262219466861069,-0.000350969083033448,7.23206895676398e-05,-6.424750156242e-05,-0.000291971943907399,-0.00196724952844818,1.04089365695614e-05,-0.0017841002794281,7.93276125454767e-05,-0.000168933874172161,-0.000116569108182141,0.00102883139062993,-0.000823370135313972,0.000126452571479696,-1.11513899581084e-05,-0.000599492005881608,-0.000102514298147227,-0.000206059657600122,-1.7903192986779e-05,-0.000168512234279383,8.76448368272165e-05,-0.00240359911856736,-2.46281179734353e-05,-0.00581436132897473,0.000280310004135309,-0.000981328432471784,-2.32965514594952e-05,-0.00013943930441318,-7.8693623493109e-06,2.70831327391363e-05,-0.00257941987285548,2.42431183865577e-05,0.00110737719301301,-0.00100441158163189,-6.80288588466027e-05,-2.12256641871633e-05,3.42414224165921e-05,-9.50043629543984e-06,4.63402151753556e-05,0.000224270723628628,-1.95546078778364e-05,2.27971278032868e-05,-6.00539304391745e-05,-0.00113101110300562,7.37743505725419e-05,-9.5004362927753e-06,-2.46281179734353e-05,-1.53685808168547e-06,0.000102956554445477,9.48438719969857e-05,-0.00274050467146481,0.000109641933199178,-9.80585567464942e-05,-0.0061630596063198,7.60358572629016e-05,0.000158850761442508,-2.03623067029923e-05,3.97827161684461e-05,1.62784162611729e-05,9.48438719969857e-05,-8.52767409087463e-05,0.000109641933199178,-0.00622967251369744,0.000260968556615282,0.00109798287698215,3.56525764120263e-05,4.37643684652045e-05,-0.00484117488607971,9.18140849313076e-05,-0.00677419122837275,-9.80585567464942e-05,0.000117796285422855,5.42482353678153e-05,0.000346656756944341,-3.35036945084966e-05,3.97827161684461e-05,1.62784162611729e-05,-0.000710575412082193,7.93276125454767e-05,-0.000380192475189389,-0.000806288501981278,0.000103947500044832,-1.81942698880277e-05,-0.000983155536456337,-7.89461959671556e-05,-9.80585567464942e-05,8.2024238095002e-05,-0.00125055480587299,9.68042185069962e-05,-0.00111446145529293,7.36748835006296e-06,0.000129629270906761,-0.000245047389310749,9.07794792173178e-05,0.000119615419786001,-0.000703066097060834,-0.00119636035202575,-0.000394758756686819,-4.13785014012902e-05,7.36748835006296e-06,5.92413570075223e-05,-5.43214606523179e-05,6.04522241385297e-05,1.62784162611729e-05,-0.00176588949725343,-0.00104385663829465,-2.46281179734353e-05,-2.46281179734353e-05,5.5519514858382e-05,-4.13785014012902e-05,-2.46281179734353e-05,3.25637992384387e-05,-1.7903192986779e-05,4.25141335735901e-06,0.000516904975709664,-0.00577379024036873,7.85045373943305e-05,0.000108721681100654,-0.000456994217671536,-9.58713130891908e-05,1.19025076772417e-05,0.000142551362266374,-0.00256004891550354,-4.50668979885549e-05,3.61670669395409e-05,-2.46281179734353e-05,-0.00236506190100449,-0.000922589786619632,4.11260322605855e-05,-0.000718849933214472,-0.00142042139817189,0.000516904975709664,-1.11513899581084e-05,-0.000893987068219637,-3.16847969470402e-05,-4.6654358438758e-06,7.93276125454767e-05,4.37643684652045e-05,6.16486606714872e-05,-4.6654358438758e-06,5.42482353678153e-05,8.03990098141583e-05,-0.00134472866669544,7.93276125454767e-05,-0.0084193646496189,4.24531527150052e-05,-0.000757301773435692,2.27971278032868e-05,-0.000205873916555355,4.76053942000121e-05,-2.81134743254086e-05,-4.6654358438758e-06,-0.00129210707927818,-0.000104783806638586,-6.20112664693195e-05,-0.0025663674575771,-0.00274566935128551,-3.17017324462654e-05,-5.43214606523179e-05,6.16486606714872e-05,7.93276125454767e-05,-0.000102514298145451,-0.00276859890033965,-0.00284830411897818,6.02776263489702e-05,-0.00547070017447204,-0.00282440075350365,-0.00147115694408484,-0.00714977210172396,-0.000612080994651265,5.6775274563492e-05,1.04089365695614e-05,-1.95546078778364e-05,-3.1684796946152e-05,0.000107790182624079,-7.68870400706945e-05,-0.00232811959661028,-5.07710427513075e-05,2.70831327391363e-05,-0.000544627127977648,1.83513512839184e-05,-0.00100710758819922,6.78713100272788e-05,-0.00585965702733215,-3.90983688474122e-05,-7.76938947115724e-05,-7.00847622265854e-05,-8.84762048940502e-05,-4.6654358438758e-06,-2.12256641871633e-05,-0.000639252038998173,8.89737239795352e-06,6.16486606714872e-05,1.62784162611729e-05,-0.00205233149478268,4.63402151753556e-05,-0.00217347339220186,-0.00253657755058256,1.48369395658321e-05,-0.0014883673829722,-4.67821149596759e-05,-0.00217208776362199,7.36748835006296e-06,-2.81134743254086e-05,-5.46931928253613e-05,-0.00262685369974758,-0.000720643772832652,-6.20112664693195e-05,-0.00217428929911545,-9.15756437631643e-05,-0.00574065258430156,0.000138064020958062,0.000261052290134067,-4.13785014012902e-05,-0.00236705825750416,9.48438719969857e-05,-2.81134743254086e-05,-0.000544627127977648,-2.81134743254086e-05,-2.46281179725472e-05,4.50599635222204e-05,-0.00100157454258554,-0.000129270206370435,-9.18470314559272e-05,-0.00666353359566951,0.000151646020810858,-7.485263164142e-05,8.89737239795352e-06,-9.5004362927753e-06,4.50599635222204e-05,8.94339877532957e-06,-4.88462246766019e-05,-1.95546078778364e-05,-5.07710427504193e-05,-3.0918953148884e-06,-0.00248651787376009,-6.25781156138316e-06,-0.00117434131210103,-0.00120382449716416,-0.000544627127977648,-0.00622566440742567,0.000212838046634189,-0.00245131959127232,-0.0067399716203731,8.94339877532957e-06,-0.000235966450446767,8.03990098141583e-05,-0.00135737256678947,-3.77777961624304e-05,-0.00314891514635285,-0.00966692301984562,-0.00337684062445742,-0.00236864388803948,-0.00215268197960228,-0.00159678226119819,-2.37287950284326e-05,-4.13785014012902e-05,2.98559069520365e-05,-0.000732786567928301,-1.53685808168547e-06,0.000318427682933553,-0.000968971462588009,-0.00274566935128551,-9.63672176679253e-05,2.56716824020842e-05,9.38460593804535e-05,-8.74395362115976e-05,-3.95673837489952e-05,-0.00161863524476491,2.84777748458254e-05,-6.92320472159835e-05,0.00110737719301301,9.92727713295949e-05,9.48438719969857e-05,-0.00240411447354116,-1.7903192986779e-05,-0.00090601040790883,0.00019493442244034,-0.000186331282794328,2.4664770222671e-05,1.04089365695614e-05,-0.00100522032801198,-2.81134743254086e-05,-2.81134743254086e-05,2.66452802843986e-06,-0.00419470226322982,4.90020235215383e-05,-1.7903192986779e-05,4.24531527150052e-05,-0.00699407031789168,-2.63602453181022e-05,1.04089365695614e-05,-9.80585567464942e-05,7.36748835006296e-06,2.56716824020842e-05,-0.00682172356638233,-2.63602453181022e-05,-0.000459412118177127,-0.000738490889326648,-0.00664263822375055,2.84777748458254e-05,-1.28225886291133e-05,-0.000350969083033448,-0.00104541571793249,-0.0019541284928497,0.000210865671609106,0.000152022341305624
"2:171045592:T:C",1.04089365695614e-05,1.82256386720425e-05,-1.86487142643799e-05,-2.55490999716557e-05,2.81632690146694e-06,-1.41574725454063e-05,-0.00230835009273278,1.04089365695614e-05,0.311036518893344,-0.00371577086031127,-1.86487142643799e-05,-8.41039028998125e-06,-5.55334157059661e-06,-5.83953667678827e-05,5.08393166676058e-06,1.04089365695614e-05,-9.84193124136112e-05,-6.79964320760007e-06,5.08393166676058e-06,-1.97378469808385e-05,-1.26245267075831e-05,-0.00404532472113495,-1.30130628201997e-05,-2.52104141740261e-05,-8.77443064757344e-05,1.08426654872318e-05,-6.79964320760007e-06,-2.85644279873765e-06,-0.00224229905826157,-0.00627395795664398,5.50463292636749e-06,-0.0036680871345478,-0.00184221203250079,2.1884457298782e-05,-0.00140717133466772,-3.26722690680015e-06,-0.00459678634268101,-2.5884508263907e-05,3.82988278238017e-05,2.85272138746961e-05,3.82988278238017e-05,-0.00550605001197013,-4.38837545884141e-05,-0.000300990596496575,-0.000599713712245986,2.57412780682031e-05,-0.00166660104019378,5.08393166676058e-06,1.08426654872318e-05,-0.000460712025049936,-0.00182195061332457,6.78625804262367e-06,-0.00273277960914431,-0.00448530538992475,-1.27946945296387e-05,6.03006269006556e-06,-0.000807597583468045,2.07544683039629e-06,-8.41039028998125e-06,-0.00188189595272803,-7.6121570797838e-06,5.08393166676058e-06,-0.00170670488960223,1.78092567386656e-05,5.92856881009851e-06,-1.10338267047538e-05,-0.00176324408623252,-1.45320244060443e-05,-0.00134072824479592,5.50463292636749e-06,-7.20770652407055e-06,1.60028430382653e-05,-0.00379968601238456,-0.00298247824586095,2.50068447016361e-06,6.78625804262367e-06,4.084350075928e-07,-3.51672000560299e-05,-3.15950248923613e-05,-0.00269146780776808,-0.000950233492186037,2.48327098990586e-05,-0.00364618750870083,-2.48684045063285e-05,-5.74169295841642e-05,-3.78153648856738e-05,-0.00346706950135456,-4.87614766786493e-06,-3.15950248923613e-05,2.1884457298782e-05,-0.000950233492186037,-3.26722690680015e-06,-0.00358598673921318,9.97833832716566e-06,-0.00159029974714198,-1.37794909722544e-05,-0.00167317473512352,-0.00374340534385187,-0.00269025550628754,2.48327098990586e-05,-4.10942320323571e-05,-1.75279577963039e-05,-0.00339207835567024,-0.0022726070719683,-0.00346706950135456,-4.87614766786493e-06,1.2162861531273e-05,-2.5884508263907e-05,-0.00613344598540611,-2.29400063140872e-05,-3.54814582435026e-05,-0.000344233835229524,-0.00175165961960921,2.05218567197463e-05,2.48327098990586e-05,-2.75922905670356e-05,-0.00250774129862563,-3.22159527712529e-05,-0.00292826828808579,-2.44216150324661e-06,-4.49182363810863e-05,-0.00191485049752416,-0.0035777697097874,-0.000254133151559977,1.71459283828668e-05,-0.00182491742338353,-0.00120937977154956,1.12795477162919e-05,-2.44216150324661e-06,-1.90152092685025e-05,1.46797007145594e-05,-0.00114123588736348,-4.87614766786493e-06,-0.000101086581802967,-0.0053889271897134,6.78625804262367e-06,6.78625804262367e-06,-1.79051367368288e-05,-0.00304164006871854,6.78625804262367e-06,-9.9653490570617e-06,5.08393166676058e-06,-0.00264183727505163,1.96274504622451e-05,-0.00139503157111065,-2.6510781756528e-05,-3.70036621450964e-05,4.18439195355447e-05,2.43822197818488e-05,-3.67455191074839e-06,-0.00090635964229957,-3.71939228385187e-05,-0.000120653669161364,-5.93241090918184e-05,6.78625804262367e-06,-0.0045764380991189,-0.00404968240179393,-1.30130628201997e-05,-0.00924898669727003,-0.00732566388019684,1.96274504622451e-05,-0.00246977476079113,-0.00418585823352835,8.54170142883248e-06,-0.00216974435805461,-2.5884508263907e-05,-0.00128905439994309,-1.97378469808385e-05,1.23522016881594e-06,-0.00146124021902239,-2.62166846027867e-05,-0.00330654335915437,-2.5884508263907e-05,-0.00408381476938491,-0.00332494205570111,-0.00417084720822114,-7.20770652407055e-06,-0.000937275282160144,-1.49031897143104e-05,7.65722661366652e-06,1.23522016881594e-06,-0.0032241483237625,-0.00286642761490175,1.64498931063406e-05,-0.00209035097582788,4.084350075928e-07,7.63798254688197e-06,1.46797007145594e-05,-1.97378469808385e-05,-2.58845082621306e-05,2.57412780682031e-05,-0.000211582016659051,-0.00192134836136493,-0.00357342778399605,-0.00114561500332133,-0.00315356238443876,-0.00326511018895115,-0.00172974373909707,-0.00210486343923133,-1.82787060296619e-05,-0.00173188966279714,5.50463292636749e-06,8.54170143060884e-06,-3.67055986174591e-05,2.00732584065832e-05,-0.00564438574400228,1.35120340685191e-05,-8.41039028998125e-06,5.92856881009851e-06,-5.97250475564692e-06,-3.16939459565901e-07,-0.00154581352403493,-0.00172274597773558,-0.00465349564843809,-1.78902724954355e-05,-0.00196668003902278,-2.03483338685473e-05,1.23522016881594e-06,5.92856881009851e-06,-0.00236572431306925,-2.85644279873765e-06,-1.97378469808385e-05,-4.87614766786493e-06,-0.000357840787206243,-1.45320244060443e-05,-0.00205856384529302,-9.19467847904087e-06,-4.47897512501072e-06,-8.01303759523364e-06,-0.00565016941759033,-4.22072017549624e-05,-2.44216150324661e-06,7.65722661366652e-06,-0.00214322429694214,2.7979080202023e-05,-0.00222620968943321,-0.00303716276780897,-1.93782380772944e-05,2.34888425456603e-05,-2.8294424631703e-05,-0.00336557636473689,-0.000106093723398537,1.12795477154037e-05,-0.000195387760897781,-3.15950248923613e-05,7.65722661366652e-06,5.92856881009851e-06,7.65722661366652e-06,6.78625804262367e-06,-1.41574725462945e-05,5.57617596985693e-06,1.60028430382653e-05,-0.00188412812019312,9.43990835455821e-06,-0.00227065290853545,1.96274504622451e-05,-4.33580452652294e-05,2.50068447016361e-06,-0.00116616463524011,-0.00184478221689499,1.30590542983811e-05,5.50463292636749e-06,1.35120340694073e-05,8.20164051340555e-07,-0.0018077201723079,1.65363661164264e-06,-0.000128301238546236,-0.00120306295851957,5.92856881009851e-06,-0.002388476413552,2.89314396333396e-05,8.65433850893993e-06,-5.88395708422951e-06,-0.00175772068973412,4.81674376295871e-05,-2.62166846027867e-05,-3.26722690680015e-06,1.04089365695614e-05,-0.00215666236305001,-8.20770224407852e-06,-2.58845082630188e-05,-0.000275726500234441,1.97064875093744e-05,2.75879000559698e-05,-0.00245161633668367,1.12795477162919e-05,-9.19467847904087e-06,-0.00087282806685085,4.084350075928e-07,2.43822197818488e-05,-0.000271564477380082,4.084350075928e-07,-0.00134492747061365,-8.01303759523364e-06,-3.12798770645273e-05,-0.00179938358410325,1.08426654872318e-05,4.64747578918789e-05,-8.80425685600983e-06,-0.00211483764608911,5.08393166676058e-06,-0.000924670735382271,-0.000788342003954057,-0.00253203882226583,5.08393166676058e-06,-0.000109475895694544,-7.31347127818083e-05,3.91405086785923e-05,-0.00144088505906037,-3.26722690680015e-06,-0.00034042114202304,7.6572266145547e-06,7.65722661366652e-06,-1.17794829890272e-06,-4.47897512501072e-06,-0.0015480961043961,5.08393166676058e-06,-1.33980358771879e-05,-0.00225995938745349,7.22006821263221e-06,-0.00292766354144636,2.48327098990586e-05,-2.44216150324661e-06,-0.00154508344132598,-0.00461567766180693,7.22006821263221e-06,-0.00457922888339191,4.99776487297154e-05,-0.00678861406511988,-8.80425685600983e-06,-0.00245432463777817,5.50463292636749e-06,-0.00174619493548178,-9.75366861588611e-05,-8.07508853508665e-05,5.27540888466405e-05
"2:171046443:C:T",-0.00107611469074875,-0.00322134577156419,-0.00129283807857483,-0.000887608804672979,-0.00145782257538762,-0.00370149098889794,-0.00520734762787001,-0.00107611469074875,-0.00371577086031127,0.983505080758202,-0.00129283807857483,-0.00142566136124156,-0.00104223438149553,-0.0012507873538139,1.87372735691582e-05,-0.00107611469074875,-0.000846614809075774,-0.00282872159867331,1.87372735691582e-05,-0.00098992372832285,-0.000173918054453104,-0.0167935060965201,-0.00140131465817372,-0.000111036806274001,-0.00078750173175024,-0.00139211045819287,-0.00159958586960851,-0.00169201916619333,2.73023046730714e-05,-0.00291857850344091,2.01560451600358e-05,-0.00235709365722059,-0.00384357241733779,-0.000152437574434394,-0.0047369133520232,-7.73523804307175e-05,-0.0188224198638243,-0.000113796997450066,-0.00652198542301541,-0.00329189508356365,-0.00466187228529336,-0.00608913922187249,-0.000929563583343729,-0.00191481862480369,-0.0174028294723838,-0.00229837056630622,-0.00152867237680177,1.87372735691582e-05,-0.00353391746210718,-0.000128915716630651,-0.000131165045352155,-0.00114611365405537,-0.0106083192681163,-0.00123244163818104,-0.00330147567454109,-0.00489801539349699,-0.000155485449231385,-0.00196414739088713,-0.00311279856940327,-0.00516133556736831,-3.14189399839293e-05,1.87372735691582e-05,-0.00440669455796527,-0.0085832683317566,-0.00297966595275856,-0.000185649914526742,-0.00254001595739517,-0.00210928513095254,-0.00327521916899709,-0.00519152816129509,-2.98664886067002e-05,5.3744449619586e-05,-0.00639465965810793,-0.00257807829456702,-0.00262282927611945,-0.00235005849502024,-0.00348503551636092,-0.00514432100296247,7.18005372384312e-05,-0.00323328572943815,-0.00194494195415462,-0.000994210354361869,-0.00260047141185904,-0.00229892420129385,-0.00397723628455005,-0.000484089017289691,-0.00685487141087648,0.00010769032123914,7.18005372384312e-05,-0.0012433032983159,-0.00194494195415462,-1.32627028035515e-05,-0.00286354507774522,0.000253040340333577,-0.00575682687616741,-0.00125207445880449,-0.00433801614208118,-0.00501456553539725,-0.00211516937102818,-0.000994210354361869,-0.000524904826394668,-0.00645899945750372,-0.00782360715114017,-0.000403477534531405,-0.00481739725401997,-1.92673053165393e-05,-0.00551667687992818,-0.00532233965979589,-0.0121099708217876,-0.000247037013695106,-0.00488231339252909,-0.00305562397746328,-0.00695389693104209,-0.00255530891277456,-0.00387394024080923,-0.00014626104140536,-0.0083508657528979,-0.000708981376206452,-0.00177888603874843,-0.00193177860810234,-0.000828471672045694,-0.00393857038950429,-0.00915402313795344,-0.000167559068042777,-0.00157761493535169,-0.0129252021313859,-0.000441756715539476,-0.00155180929582777,-0.00338972280336947,-8.18682409526872e-05,5.00214348750916e-05,-0.00381664622053268,0.00010769032123914,-0.00221788830862346,-0.00159939305882117,-0.00367926150588449,-0.00192596151149793,-0.00417689369061325,-0.00294162962192779,-0.00536696176687901,-4.0514900779165e-05,0.000403556749514422,-0.000289007585461576,-0.00155275086340012,-0.000644981627339725,-0.0020798505579922,-0.00308363226173647,-0.0068673451188932,-0.00125325487697125,-1.47767148908073e-05,-0.00058848623259955,-0.00301584661960685,4.21575534881313e-05,-0.000546897950449932,-0.00294746936147039,-0.00341230849786456,-0.00937304506794101,-0.00294326422853253,-0.00415974322100521,-0.00278431446074467,-0.00155275086340012,-0.000488394423284078,-0.00923656345735502,-0.00381893038537928,-0.00512808581072033,-0.00155663100346537,-0.00440358010120434,-8.47974459903256e-05,4.4082164158965e-06,-0.00278922994837405,-0.000860089356690352,-0.00287742888187825,-0.00155663100346537,-0.00659813517108221,-0.00283153158284311,-0.00901910880433432,-0.00332382717471713,-0.00048805548004438,-0.00653141562408877,2.73023046730714e-05,4.4082164158965e-06,-0.00296837809840156,-0.00119835133872837,-0.00256156545560327,-0.00427590941908118,-0.00404761755201299,-0.00151798208467291,5.00214348750916e-05,-8.47974459903256e-05,-0.00155663100346537,-0.00439320753839922,-0.00898093199573324,-0.00421975762340621,-0.00948049676779483,-0.000946082283646454,-0.00320627090435455,-0.00313869478707041,-0.00293547275179318,-0.000247415406202656,-0.00048812711076085,-0.00139880237376566,2.01560451600358e-05,-0.00554109418382875,-0.00241624764767501,-0.00109003822511688,-0.00422991701245623,-0.00457517442936517,-2.58379054667301e-05,-0.00180500532416428,-0.00267714719465939,-0.00484644759130592,-0.00217246764791845,-0.0115739000272788,-0.000547124549912681,-0.0012403448166376,-0.000274810814934412,-0.00588353765288963,-0.00209103228697849,2.15785910491206e-05,-0.000105495949881629,-1.17401824333285e-05,-0.00114620813916932,-1.92673053165393e-05,-0.0120756085304943,-6.08318808970054e-05,-0.00613685323228097,-0.0105367727669208,-1.77790496813657e-05,-0.000809903125501776,-0.0043636825287896,-0.020356714481395,-0.00090404944004252,-0.000806909579227799,-0.00157303408395837,-0.00604962281436716,-0.00572488960388107,-0.00568235942503037,-0.00114898742086833,-0.000520773370776162,-0.00374205245147152,-0.000978604938861594,0.000320732311091199,-0.000233217419112641,-0.00469359475846609,-0.00474021956168436,-0.000806909579227799,-0.00444718001054589,-0.000539637648424574,-1.31745275666617e-05,-0.000945729559397535,-0.00203653743323784,-0.00234352144429373,-0.00104912832591086,-0.00154254225019823,-0.00599721172742074,-0.00277079281839399,-0.00437489301485439,8.87284726402982e-06,-5.93408492903791e-05,-0.00203928652977226,-0.00180867251333261,-0.00519152816129509,-0.00206032481123142,-0.00258795098511655,-0.00709760066031695,-0.00200948062980633,-0.00314829083071988,-0.00726266747510884,-0.00383330666127701,-0.0102653930768302,-0.000879922233209207,-0.00162135711846911,-0.00197225262271594,-0.000161472849502076,-0.00480418959516715,-0.000860089356690352,-1.32627028035515e-05,3.67710463615722e-05,-0.00156485860156597,-0.00591380475285241,-0.00069798660456577,-0.00319480468242794,-0.00112787160548944,-0.000215891316782901,-0.00825315874732713,3.9464669997713e-05,-0.00116724156948145,-0.001992218495249,-0.00348503551636092,-0.00470149168143141,-0.00571696867737659,-0.00404761755201299,-0.00839767123039259,-3.29609368581174e-05,-4.13750046206474e-05,-0.000104030965318636,-0.00139211045819287,-0.00617950043393733,-0.00772208002162067,-0.00578387262570246,1.87372735691582e-05,-0.00817837282997758,0.000148586573613052,-0.0124497007538547,0.000403556749514422,-0.011575752459863,-0.000747663865362291,-0.00463902263208027,-0.00700124163203864,-1.32627028035515e-05,-0.00666757243256688,-0.000335523497664525,-1.01866272101958e-05,-0.00011718598046162,-0.00134896984477795,-0.00558521371819332,0.000403556749514422,-0.000258069176701348,-0.00722953174215002,-0.000930999955236267,-0.00371577086031216,-0.000184117996253619,-4.91842583825175e-05,-0.000147488108751759,-0.00453577032158314,-0.00638632149977969,-0.010585433812258,-0.00192802482877319,-0.0056214904066243,-0.000831434846577217,-0.00334729800787947,-0.00105178972134468,-0.00215746471268918,-0.00252005007373146,-0.000760770086405849,-0.00282170226694234
"2:171046638:A:C",-0.00174263937275576,0.000100798515688005,0.00102589539799336,-0.000132502810146207,1.10567315676491e-05,-0.000793908987427372,7.90113827311423e-05,-0.00174263937275576,-1.86487142643799e-05,-0.00129283807857483,0.486225462874267,-4.59796587488626e-05,-3.26478396939223e-05,-0.000285050800025388,-0.000835523120398918,-0.00174263937275576,-0.00146991483216574,-0.00109095115206426,-0.000835523120398918,-0.000103745054489401,-0.0015712997694175,-0.00298004139349217,-7.03968970059421e-05,-0.000872515574375399,-0.00144412898354052,6.03234670624175e-05,-3.84883042618966e-05,-0.00325942873472584,4.12189363405702e-05,-0.00260395402355051,-0.00229032120394557,-0.00131272924112213,-0.000756590188620621,-0.00286567612271416,-0.000446175664864157,-1.86487142643799e-05,-0.00200976258375896,-0.000133886238206316,-0.00444910745986427,0.000168499575529779,-0.00681069759019781,-0.00134381545140894,-0.000220168319912339,1.45356174581224e-05,-0.00662264947997437,-0.00318813006736107,-0.00471271340942359,2.79801029705595e-05,-0.00494561759187739,-0.00129872857492241,-0.00139382685169753,-0.0019786766606007,-0.000376745412173918,0.000199706333848582,-5.03009933678911e-05,-0.000172887733281613,0.000202705943836534,1.02716445979922e-05,-0.00372236510351343,-0.00675607140257961,-4.22751039970137e-05,-0.000835523120398918,-0.00281727342898019,-0.00227897228205176,3.2300767919935e-05,-6.14788721060577e-05,1.23921826977735e-05,-7.71828218599779e-05,-6.58707042937579e-05,-0.00482302980792682,-4.03921539975372e-05,-0.0127888400572118,-0.00330900060231443,-0.000126811500696711,1.23921826986617e-05,3.67127475726647e-05,-0.0033854632717949,-0.00223880604940696,-0.000484042400739071,-0.00060128526479275,-0.000667308509490816,-0.00161826534718923,-0.00271423796228909,-0.00430574676503337,-0.000767236576409758,-6.80867067126556e-05,-6.86530888804882e-05,-2.63327826308668e-05,-0.000484042400739071,0.000126196205487261,-0.000667308509490816,-0.00131411634464929,-0.0059470945026403,5.57318617593339e-05,-0.00120769043558688,-7.38271003930535e-05,-0.000488759532822236,-0.000808370396693014,-0.00290691249205288,-0.00161826534718923,-0.00379321892014417,-9.42048847525356e-05,-0.00589062799651163,-0.00165837345409869,-6.86530888804882e-05,0.000455881585794238,-0.00258816159994968,-0.000133886238206316,-0.00158692119517667,9.53432220400785e-05,-0.000182578911911868,-0.00292637238388505,-0.0121454253421076,0.000118242202095331,-0.00343811699894747,-0.00115864121193443,-0.00503305191227188,-0.000164245645297711,-0.00815696669943833,-0.000238164028726118,-0.000223830212114251,-0.00317681013739524,-0.000876476154044958,-0.000212310643791014,9.21951938481769e-05,-0.00235001831825743,-0.00167469168256851,6.26552398630409e-05,-1.46814710992871e-05,-0.000100635911591596,-0.00076269947707619,-0.000102199102362199,-2.63327826308668e-05,-0.00291061057909303,-0.00304847555139176,3.67127475726647e-05,3.67127475726647e-05,-0.00227328547250849,-0.00221681667482887,3.67127475726647e-05,-5.31524669682426e-05,2.79801029705595e-05,-1.06271150563941e-05,-0.00375663864128839,-0.00110310367474131,-0.000141502390554216,-0.00152747139640663,-0.00172032510572784,0.000142933389605915,-2.0600535166615e-05,-0.00212204808597072,-0.00484302464002706,6.7392599713223e-05,-0.00141518223480919,3.67127475717766e-05,-0.00234100725170627,-0.000166716087779406,-7.03968970059421e-05,-0.00228988726795709,7.51462980730366e-09,-0.00375663864128839,1.45356174581224e-05,-0.000912684926188234,-0.00169040251612795,6.09781872373816e-06,-0.000133886238206316,-7.38271003930535e-05,-0.000103745054489401,6.09781872373816e-06,-0.00358222673216613,-8.86467633067767e-05,-6.85028644733521e-05,-0.000133886238206316,0.000240794722513371,-7.21214623853328e-05,-0.00144048342550551,-4.03921539975372e-05,0.000288854507091152,-7.88335026884468e-05,-0.00178581998805871,6.09781872373816e-06,-0.000112246383122461,0.000154001798658321,9.30644557319837e-05,-0.00358957190585318,-0.0033854632717949,-0.00278539222156304,-0.00199250447129451,-0.000103745054489401,-0.000133886238206316,-0.00615470407462304,-0.00587767865854349,-0.0052434294665753,-0.00256050712453959,-0.000247542173174686,-0.000969545440280051,-0.000662509843362358,5.68859947316369e-05,-0.00183402884280959,-0.00101817048398978,-1.86487142643799e-05,-0.00229032120394557,-0.00015690184101036,0.000912478525798122,0.000115645169734613,-0.00152505206942299,7.46890309359927e-05,-4.59796587488626e-05,-0.00261022993778237,-0.00129294609832353,-0.00195110414784772,-0.000119322037684277,-0.000902566379124892,-0.0026759139638548,-7.47769152491529e-05,0.000103296521344554,-0.0103421182913102,6.09781872373816e-06,3.2300767919935e-05,-0.00617474863170564,-1.66758066191264e-05,-0.00338550945281568,-2.63327826308668e-05,-0.0127277295652357,-0.000607647921607501,-0.00617306560141007,-4.96046046256637e-05,-2.44422457127413e-05,-0.000762845366908849,2.83156309661692e-05,-0.00571652668850575,-0.00112660893522154,4.12189363405702e-05,7.96849918645037e-05,-0.00331946896818192,-0.00177854070901606,9.30644557319837e-05,-0.00175587631807783,0.000137566238582743,-0.00209407677594253,-0.00201991117393163,-0.000567439921951518,6.26552398621527e-05,-0.00706265353933855,-0.000161795628423889,4.12189363405702e-05,-0.00261022993778237,4.12189363405702e-05,3.67127475717766e-05,-7.55141195796227e-05,-0.00303648215720553,-0.00164982944394598,0.000134403472463518,5.05261349070807e-05,-0.000873600708779954,0.000113074609303432,-0.00298041108311775,1.23921826986617e-05,-7.55141195778464e-05,-2.24617044048969e-05,7.2230967696818e-05,3.01291974151852e-05,-0.00167008037468808,4.0438296879941e-06,-0.000223558253201084,-0.000578824158656843,-0.00324077608858175,-0.00133429329617041,-0.00261022993778237,-0.000590114979468481,-0.00251127030453713,-0.00612547817859888,-0.00200778477444175,-0.000238221426831942,-0.000940376390989428,0.000547895183028224,-0.00771568047392268,-0.00174263937275576,-0.00281174964044828,-0.000548224659939756,0.000964269096777493,-0.00260484250352722,-0.00138504752096757,0.000187744284688485,2.5317866718666e-05,6.26552398630409e-05,-4.96046046256637e-05,-0.00111813220099233,2.01133441724011e-06,-0.00260650392555117,-0.00199692879347735,2.01133441724011e-06,-0.000184079401225112,-0.00114764949175505,-0.000160549837141311,0.000128903241229494,6.03234670624175e-05,-0.00456017640227202,-4.78019224345871e-05,-0.00284733871590248,-0.000835523120398918,-0.00094850348136255,-0.000161795628423889,-0.00174674001534969,2.79801029705595e-05,-0.00617721137669758,-0.000163849933889182,-0.00397311972847536,-0.000440457992280763,-1.86487142643799e-05,-0.00208651870857857,-0.00211430211239527,-0.00449805145507742,-0.00138837907455702,-0.00100023019291129,-0.0011843944876393,2.79801029705595e-05,-0.00100076370080426,-5.83062676948742e-05,3.89538802263445e-05,-0.00131411634464929,0.000145658102499446,-0.00229555571349582,-4.41374945747697e-05,-0.0070570406484638,3.89538802263445e-05,-0.00873726925669782,-0.0085876025594942,-0.00283437504343276,-4.78019224345871e-05,1.67023183728077e-05,3.01291974151852e-05,-0.00027383338765663,-0.000209555423506202,-0.000382564502282357,-0.00693713494513304
"2:171046875:T:G",2.70831327391363e-05,-0.00256916010745911,-4.59796587488626e-05,-6.20356787965903e-05,-0.00166992647101427,-3.51275126790895e-05,-0.00237662676237171,2.70831327391363e-05,-8.41039028998125e-06,-0.00142566136124156,-4.59796587488626e-05,0.369740803655414,-0.00302688401344042,-0.00020503274825856,1.30653618430898e-05,2.70831327391363e-05,-0.000220328499412226,-0.00124521526499066,1.30653618430898e-05,-4.84325002112485e-05,-3.15905477474843e-05,-0.00157663248524109,-3.24889382410376e-05,-6.12915094553301e-05,-0.000198772546581516,2.8213105354169e-05,-1.73755451733371e-05,-0.0031348871348742,-0.00254876004444782,-0.000127329021061051,1.41281955743366e-05,-6.0846369263956e-05,-0.000228928950725127,5.87759087489204e-05,-0.000862676363718506,-8.41039028998125e-06,-0.00542110025682341,-0.000474041287048088,-0.00227556467240397,7.83321149704364e-05,-0.00338095909504599,8.77284976441572e-05,-0.000103617226768549,7.24865562684585e-06,-0.011092910954229,7.0119727580753e-05,0.000131158163966028,1.30653618430898e-05,2.8213105354169e-05,-7.43159723581854e-05,-2.29178807753527e-06,1.73805530723214e-05,-0.0014400082886139,9.1973729517747e-05,-0.00327687725120462,-0.000123361436733305,9.33777124814128e-05,-0.00178352696330641,-0.00358222882902126,-0.000260943115867995,-1.93016816636415e-05,1.30653618430898e-05,-0.00321240833703573,-0.0012432793301338,1.52015690160212e-05,-0.00137135799037136,6.18140114383436e-06,-3.59886593708225e-05,-0.00119090050317627,1.41281955743366e-05,-1.83437032568179e-05,4.22461828621934e-05,-4.28274939539008e-05,-5.90097938681922e-05,6.18140114383436e-06,-0.0021724948927293,1.00456487217571e-06,-0.00118973888834795,-7.59417564006881e-05,-5.71747013902169e-05,-0.00452586535921995,6.74856249229805e-05,-0.000974223156244847,-0.00412071294398864,-0.000133194662881309,-0.00345365281643861,-0.000272118947080457,-1.22843831880104e-05,-7.59417564006881e-05,5.87759087489204e-05,-0.00452586535921995,-8.41039028998125e-06,-0.00111250928163464,2.59641338899996e-05,-2.88366443950139e-05,-0.00105109562422534,-0.000233627809613779,-7.38910193041065e-05,1.05274814217182e-05,6.74856249229805e-05,-0.00271567345116885,-0.00341536150928601,-0.000813317891010357,2.30235870510853e-05,-0.000272118947080457,-1.22843831880104e-05,3.16704549581104e-05,-6.2771865422917e-05,5.64029908156627e-05,-0.00389330309863123,-0.0010939818497242,-0.00338411249399861,-0.00108094354203647,5.49579004740508e-05,6.74856249229805e-05,-0.000292022764715405,-0.000478712583212193,-7.72719882666806e-05,-0.000959987356919711,-6.41312562876806e-06,-0.000105723020766391,-0.000578666640492997,-7.31921774450583e-05,-0.000410228796422274,-0.00668704903444528,-0.00198786260167338,6.43827961432919e-06,2.93542092038024e-05,-6.41312562876806e-06,-0.0010083905687166,3.86929290598914e-05,-0.00415771906579732,-1.22843831880104e-05,-0.00731229115358545,-0.00803626625068787,1.73805530723214e-05,1.73805530723214e-05,-4.42997381844279e-05,-0.00213527653657586,1.73805530723214e-05,-2.48443839110379e-05,1.30653618430898e-05,-4.37402651165542e-06,5.24730550477415e-05,-8.31147949913458e-05,-6.4956565360319e-05,-8.83216673841503e-05,-0.00222986702896577,6.61871786542534e-05,-0.00359807379074439,-0.000118158677459235,-0.00583504625712195,-0.000580440392019099,-0.00289903916810186,1.73805530723214e-05,-0.00636509507262861,-0.000142396843246573,-3.24889382410376e-05,-0.000877048216624488,-0.00119582869124013,5.24730550477415e-05,7.24865562684585e-06,-0.000178935016540649,-0.00598289636197968,-0.00190973524592764,-6.2771865422917e-05,-3.42572729321589e-05,-0.000778036328626719,3.04404098727673e-06,-0.00341536150928601,-6.35001963171788e-05,-0.0041771848293406,-6.2771865422917e-05,-0.000175009764957323,-3.33777968668514e-05,-0.000616723526963625,-1.83437032568179e-05,-0.00116844743072431,-3.68408533502063e-05,1.96035795143601e-05,3.04404098727673e-06,-0.00431146730282173,7.14557213425948e-05,4.34537633378085e-05,-0.000264068215974689,1.00456487217571e-06,1.86336829584022e-05,3.86929290598914e-05,-0.000778036328626719,-6.2771865422917e-05,7.01197275816412e-05,-0.00147408586730435,-0.00429619622635347,-0.000234926971673488,-0.000116260564608339,-0.00630664654082835,-0.00248637805331153,-0.00195626699312257,-0.00204809563205455,-4.51442641198341e-05,-0.00147872793418191,1.41281955743366e-05,2.18719624331953e-05,-8.76965567160326e-05,5.37095389434583e-05,-0.00118545743711795,-0.00223772641296893,-2.11877264923999e-05,1.52015690160212e-05,-1.54080433363291e-05,-1.2340692876478e-06,-0.0029256147514829,-0.000336740558144477,-0.00258902035045505,-0.00263035182154425,-0.00532837969399136,-0.00194357830934688,-0.00497735273016087,1.52015690160212e-05,-0.000622915911167254,-7.41690773242709e-06,-4.84325002103603e-05,-1.22843831880104e-05,-0.00236302810543076,-3.59886593708225e-05,-0.00335083798300051,-2.30349024539223e-05,-1.13305771947125e-05,-2.02496379486661e-05,2.80035477997487e-05,-0.0018687461693494,-0.00338687963584938,1.96035795143601e-05,-0.00568141086021878,-0.00487075310295459,-0.00355068168854888,4.34537633378085e-05,-4.76236352948689e-05,6.36266731683932e-05,-0.00358778746314847,-0.000115277554425752,-0.000233408554786152,-0.00382363275288178,-0.0057812745193706,-0.00142636269979057,1.96035795143601e-05,1.52015690160212e-05,-0.00198205933428142,1.73805530732096e-05,-0.0015441261583824,1.38892627568055e-05,4.22461828621934e-05,-0.00513479885646362,2.41870667165855e-05,-0.00849457749366689,5.24730550477415e-05,-7.41690773153891e-06,6.18140114383436e-06,-0.000605885379016513,-0.00352024923712779,-0.00210968735322137,1.41281955743366e-05,3.52324141452698e-05,2.01919550146812e-06,-0.000337212225049122,4.07925330581094e-06,2.92983726399854e-05,-0.00543090209877395,1.52015690160212e-05,-0.00950510156471207,7.98255362637335e-05,-0.00155024152188332,-0.00149653957269269,-0.00661657553730155,-0.00201572090620594,-6.35001963171788e-05,-8.41039028998125e-06,2.70831327391363e-05,-0.000414153186913957,-0.00333918200442707,-6.2771865422917e-05,-0.000425046732190459,-0.00256982092841174,7.52274717026324e-05,-0.00276305725219483,2.93542092038024e-05,-0.000973652404768544,-0.003491192211456,1.00456487217571e-06,6.61871786542534e-05,-0.000817469117011527,1.00456487217571e-06,-0.00501249054626829,-2.02496379486661e-05,-0.000710513533650037,6.00734530298297e-05,2.8213105354169e-05,-0.00164019098104351,-0.00113516309077166,4.65939122014092e-05,1.30653618430898e-05,-0.00331752680031983,-0.000574092470858822,-0.000371840209036023,1.30653618430898e-05,-0.00313523598974541,-0.00016620377372778,0.00011280611343345,-4.94092757312714e-05,-8.41039028998125e-06,-0.00335377134226178,1.96035795152483e-05,1.96035795143601e-05,-3.33838332267078e-06,-1.13305771956007e-05,-3.99348015234224e-05,1.30653618430898e-05,-3.33777968668514e-05,-0.00106202927373644,1.8486480030333e-05,-8.41039028998125e-06,6.74856249229805e-05,-6.41312562876806e-06,-0.0034095396701872,-0.00175933643260073,1.8486480030333e-05,-0.00221658728070029,0.000154502588614491,-0.00316484222833857,-0.00113516309077166,-0.00172008939264146,1.41281955743366e-05,-2.50216996651176e-05,-0.000910466689598266,-0.00018208400423525,-0.00128362526502634
"2:171046985:T:C",1.68323685603156e-05,2.85732146236839e-05,-3.26478396939223e-05,-0.000883689843854008,4.47950726112367e-06,-2.45215948710964e-05,-0.000307516078573489,1.68323685603156e-05,-5.55334157059661e-06,-0.00104223438149553,-3.26478396939223e-05,-0.00302688401344042,0.504424879696639,-0.000413696031352551,8.36296320194663e-06,1.68323685603156e-05,-0.0018292759262506,-0.00610641825946434,8.36296320194663e-06,-3.45675016841795e-05,-2.18625599419653e-05,-3.33618261372237e-05,-2.25354076439643e-05,-4.46236161968372e-05,-0.00185967381341268,1.75025069415469e-05,-6.84765157750178e-05,-0.000453114952315481,-0.00222818509979295,-6.0798801011952e-05,9.03585798894824e-06,-9.15082851244975e-05,-0.00016951209983862,3.38614106061286e-05,-0.00233177650030125,-5.55334157059661e-06,-0.00265745449609867,-4.58282548665423e-05,5.3853341168697e-05,-0.00349524064891327,-0.00603520872515784,-0.000529626670914496,-0.0105602797692459,-0.00489774552436462,-0.0079886365355355,3.91266298809256e-05,5.89213321644522e-05,8.36296320194663e-06,1.75025069415469e-05,-0.00263444621448272,-0.00622147710267029,1.10758730951233e-05,-0.00719371789691969,-0.00445305047748867,-0.00173432613919555,-0.00192044937647662,4.84724374754109e-05,3.39817594596781e-06,-0.00204936889630325,-0.00173603915185039,-0.000214787735869137,8.36296320194663e-06,-0.000670156707637481,-0.00370305353145817,-0.00304591561404877,-0.00544564216035415,-0.00256515249445677,-0.000968293505648532,-0.000701796100281982,9.03585798894824e-06,-0.00016976121593526,2.53649223873609e-05,-0.00094165830754811,-0.00320609561404694,-0.00199552877699105,1.10758730951233e-05,6.71373925342778e-07,-6.35189016842119e-05,-5.65156281551182e-05,-0.00102696463176866,-0.000682388037319015,3.79174134303994e-05,-0.000811092617911235,-0.000445847320762915,-0.000106725417546194,-0.00159038677170731,-2.18625599419653e-05,-8.25068879617419e-06,-5.65156281551182e-05,3.38614106061286e-05,-0.000682388037319015,-5.55334157059661e-06,-0.000171292947883206,1.61650979491057e-05,-0.00265076058618074,-0.0012783013121398,-0.004647281871204,-0.00353889366983928,-0.000307221469923569,3.79174134303994e-05,-0.00424713098051921,-0.000302582080702329,-0.00344725875313046,1.45459080256316e-05,-2.18625599419653e-05,-8.25068879617419e-06,-0.00230387089444051,-4.58282548665423e-05,-0.000479488343389178,-0.00200342841342582,2.44826319040214e-06,-0.00234637816932359,-0.00233429810888452,3.1949405325804e-05,3.79174134303994e-05,-0.000405923569534394,-0.000595506129076995,-0.00461199891303377,-0.00552935748759698,-4.17689507070662e-06,-0.00369780250955021,-0.0064151207776435,-0.00118694176250767,-0.000445483005227842,-0.00656322229494855,-0.00352095875847347,-0.00218570831303122,1.81754753523222e-05,-0.00176180882959009,-0.00333812309546655,2.33959809738948e-05,-0.00113457020597352,-8.25068879617419e-06,-0.0176652040108189,-0.00145217260665476,1.10758730951233e-05,1.10758730951233e-05,-0.00302241537879144,-0.00368268229774849,-0.00196115083146253,-1.70676513979728e-05,8.36296320194663e-06,-0.00178698547934086,3.06787675858899e-05,-0.00293915961752944,-4.73756197791886e-05,-0.00221855943198968,5.70762137668268e-05,3.73121833110446e-05,-6.23458873860727e-06,-9.29825249835758e-05,-0.0013795571784545,-0.00391565421660545,-7.42759081999722e-05,1.10758730951233e-05,-0.0104191374276636,-0.00221269853673522,-0.00510109378302026,-0.00627828215381676,-0.00204776701743548,3.06787675858899e-05,4.78642187129452e-06,-0.00174316573605715,1.38450079720798e-05,-1.48302412448231e-05,-4.58282548665423e-05,-0.0012783013121398,-0.00100141545739163,-0.00241560470710844,-0.00172127818784862,-4.64224195591001e-05,-0.00194277825791733,-4.58282548665423e-05,-0.000748674906142277,-2.32028292312947e-05,-0.00431041353020456,-0.00571640851742483,-0.00283244099214208,-0.000644934124326646,-0.00200611232100112,-0.00241560470710844,-0.0040758921946269,3.97303178614195e-05,2.60251156802838e-05,-0.00373745180930252,6.71373925342778e-07,-0.00189434963728541,2.33959809738948e-05,-0.00100141545739163,-4.58282548656541e-05,3.91266298818138e-05,-0.000121629143048807,-0.000629946279068427,-9.85662172849899e-05,-0.00343474395641863,-0.000742913719299132,-0.00187895659641324,-0.00670437548006575,-0.00230121269262895,-0.00136588220309353,-6.75593585741652e-05,9.03585798894824e-06,-0.00196203271857609,-0.00119058300134434,3.1313613264139e-05,-0.000136281855006803,-0.00372698013937267,-0.00146426298349756,9.71231735924505e-06,-1.02675323603307e-05,-0.00180827658954108,-0.00141253291722521,-0.00329184005251282,-0.00204870539641711,-0.00339671314282342,2.86832879181631e-05,-0.000696448654395443,2.02650192271392e-06,9.71231735924505e-06,-0.00469126453910018,-0.00174231054776364,-3.45675016841795e-05,-8.25068879617419e-06,-0.000426842771715563,-2.51730390710136e-05,-0.00621409337162726,-1.57479406226457e-05,-7.58323936000949e-06,-0.00153034338377811,-0.00815799421096663,-0.00192626919262739,-0.00283562214005162,-0.00200611232100112,2.2961649746911e-05,-0.00378005136782056,-0.000548991667295606,-0.000254074261998305,-0.00113457020597352,3.61011748388762e-05,-0.00302210553521665,-0.00425798418230716,-0.00143567938165301,1.8175475351434e-05,-0.00353880864469902,-5.65156281551182e-05,-0.00200611232100112,9.71231735924505e-06,-0.00442592595525504,1.10758730960114e-05,-0.000806588095390914,-0.00181309677319064,2.53649223873609e-05,3.57779182298401e-05,-0.00719376776807845,-0.010950126715958,3.06787675858899e-05,-4.86745059991023e-06,-0.00199552877699105,-2.45215948710964e-05,-0.000887591716062452,-0.00402846678839808,9.03585798894824e-06,-3.79755874586607e-05,1.34687225195051e-06,-1.75145410796773e-05,2.71026847187272e-06,-0.00504060107383886,-0.00688375614278325,9.71231735924505e-06,-0.00357652307939471,-0.000949597731233709,-2.93758182632331e-05,-0.00121511461287493,-0.00028686739910988,-0.000128464272417084,-4.64224195591001e-05,-0.00171408196558964,1.68323685603156e-05,-3.9840875589725e-06,-0.0012622161549265,-4.58282548656541e-05,-0.00093559019393652,-0.000628207553674542,-1.91462225220818e-05,-0.000814291739200002,1.81754753523222e-05,-1.57479406226457e-05,-0.000432896667643234,6.71373925342778e-07,3.73121833110446e-05,-0.00190697075227897,6.71373925342778e-07,-0.00258436661560246,-1.37310399228596e-05,-5.59470212317947e-05,-0.00153115091293454,1.75025069415469e-05,-0.00204141665539304,-1.50806557135397e-05,-0.00401814346328599,8.36296320194663e-06,-0.00157147361520327,-0.000791270514832298,-0.00490953537607597,8.36296320194663e-06,-0.000513543451171827,-0.00128244288741275,5.46654814748138e-05,-0.0109938897445101,-0.00171408196558964,-0.00680083258408626,-0.00177371663055492,1.24534946808197e-05,-0.00179558274675706,-7.58323936000949e-06,-0.00139087964468043,8.36296320194663e-06,-0.00299271998116346,-0.00494876465434579,1.17629355909088e-05,-5.55334157059661e-06,-0.00106006957858895,-4.17689507070662e-06,-1.37310399228596e-05,-0.000186336837337375,-0.0023030404117117,-0.00356812498111658,6.17633934361095e-05,-0.0019516893267908,-1.50806557135397e-05,-0.00222118475354449,9.03585798894824e-06,-0.00104547032958191,-0.00219748207527815,-0.000591264722195284,-0.000833166949638198
"2:171047645:G:A",0.000161885371995574,-0.00581388953361106,-0.000285050800025388,-0.000371951599136722,3.45533525436537e-06,-0.000215672348597984,-0.00247708980926031,0.000161885371995574,-5.83953667678827e-05,-0.0012507873538139,-0.000285050800025388,-0.00020503274825856,-0.000413696031352551,0.388807524885068,7.82847438927092e-05,0.000161885371995574,-0.00133887978092506,-0.00693837885438864,7.82847438927092e-05,-0.000293426059742252,-0.000202664703161659,-0.00167405575592738,-0.000205973294546524,3.4940806362016e-05,-0.00124852920499308,0.000167135741963698,-0.000120138105493162,-5.43064826477035e-05,-0.000752395510295933,-0.00777802173441255,8.30330393410961e-05,-0.00132124568025827,-0.000609860349116254,0.000351432574234423,0.000297806843660986,-5.83953667678827e-05,-0.000560964334679781,0.000923851159851274,0.00067154491733401,-0.0145707002090179,-0.00141009389885571,-0.00172606396212238,-4.27814582506514e-05,3.11850124870006e-05,-0.00579381022232806,0.000426062445964881,-0.000564707985622803,7.82847438927092e-05,0.000167135741963698,-0.000494546843116339,-3.31386068372908e-05,9.7601474552178e-05,-0.00104767784375603,0.000573121815002686,-0.00149535003094048,6.49950004198985e-05,0.000580808400953536,2.2020905558584e-05,-0.00020503274825856,-0.00369130317590294,-0.000311759530281286,7.82847438927092e-05,-0.0011108459691096,-0.00090840149933058,8.78346540407193e-05,-0.00277688878990201,-0.000339072279741615,-0.000218831939080566,-0.00094467394041331,8.30330393410961e-05,-0.000344057242902096,-0.00175929763298388,-0.00428181845953723,-0.00752515806719778,2.65766740161766e-05,9.7601474552178e-05,4.30594089184666e-06,-0.000475779375543439,-0.0004512598383144,-0.00172050234491117,-0.0005285525832468,0.000412473257029866,0.00137469508249133,-6.62186191950909e-05,0.00034154684543708,-0.00807565661044052,-0.000202664703161659,-7.42954634933568e-05,-0.0004512598383144,0.000351432574234423,-0.0005285525832468,-5.83953667678827e-05,0.00142574736624557,0.000156693369044447,-0.000367917815128571,-0.000212476466118439,-0.00130309568856202,-0.000127469166423921,-0.000226059788125177,0.000412473257029866,-0.000516858994025426,-0.000316510449520635,-0.000940937773957984,0.000123017426256311,-0.000202664703161659,-7.42954634933568e-05,-0.000759665182191505,0.000357124551458199,-0.00268759614896297,-0.00118927534941093,-0.00756635181871168,-0.00260923174222949,-0.00408809769719376,0.000332337398032401,-0.00468792313283295,-0.00129249750713356,-0.00143116542989485,-0.000454916391132265,-0.00187018718326071,-5.01704798869795e-05,0.00058050539827903,-0.00165422431783924,-7.8925698551835e-05,-0.000509380330023568,-0.00135105960231474,-0.00300759728518374,-0.00114024676786428,0.000172445468746396,-0.00655304164995218,-0.000287874925608556,0.00023522539998222,-0.000290666492208658,-7.42954634933568e-05,-0.00721423241192021,-0.00592641007057715,9.7601474552178e-05,9.7601474552178e-05,-0.000279724862755515,0.000172445468746396,-0.00587458583428191,0.00130635131649193,7.82847438927092e-05,-4.17538222103886e-05,0.000319963773704579,-0.000467803339926576,-0.00878371846468795,-0.000122842308472038,-0.00339305698516679,0.000405793578842406,-0.000346451698224115,-0.000692655473859105,-0.00105839740527269,0.000183247065081993,0.00123496470264595,9.76014745512899e-05,-0.00147745446809466,-0.00351958837960531,-0.000231817971008574,-0.00280733312821813,-0.00146976998218573,0.000319963773704579,3.11850124870006e-05,-0.00363643009446868,-0.000650764930218983,1.30635208082097e-05,-0.000374239496868434,-0.000212476466118439,0.000328865148126134,1.30635208082097e-05,-0.000276377270838957,-0.000376501385203731,-0.00130492100766944,-0.000374239496868434,-0.00312768845045497,-0.000209243662641079,-0.00423809912350137,-0.000344057242902096,0.00219615348116609,0.000537743886073194,0.000107592680838486,1.30635208082097e-05,-0.00125581885875903,0.000432974607510239,0.000258158567494782,-0.00537150937029729,4.30594089184666e-06,-0.00663411638880973,0.00023522539998222,0.000328865148126134,-0.000374239496868434,-0.00144161176223623,-0.000483994643798447,-9.78936772284555e-05,-0.000755599667148665,-0.000379837641443004,-0.00265340675204317,-0.000732931193179631,-0.00367802711205378,0.000199920709650137,-0.000349585789748197,-0.000387203161022143,8.30330393410961e-05,-0.000476556702319719,-0.000143746346710216,-0.00471094423044605,-0.00434068823003741,-0.000976448191721602,-0.00013505630825339,-0.00158879035017723,-0.00660933106721551,-0.00105293223346692,-0.000716374678129128,-0.00200631197094392,0.000138992705140062,-0.000660503651952915,0.000282160118011632,-0.00145852157868109,-0.000759014947038672,8.78346540407193e-05,5.57041750424148e-05,-0.000411615557715628,-3.67783615295991e-05,0.00137345159818825,-0.00040240791056867,0.000368797214535199,-0.00229647465586114,-0.000142262300133922,-8.03655740426734e-05,-0.000131391127210279,-0.00203424755762249,-0.00342235654713097,-0.000194854431510905,-0.00591186742075411,0.000211363582748092,-0.0042433383378051,-0.00393082423798674,-0.00139652390071099,-8.03012648038504e-05,0.000392657649639361,-0.00313175059768245,-0.000436360424663995,-0.00129974385300269,0.000172445468746396,-0.00332721431919847,-0.0004512598383144,-0.00591186742075411,-0.00158879035017723,0.000107592680838486,9.7601474552178e-05,-0.00021567234859976,-0.000378700602120752,0.000252327948452091,-0.000811803753310691,0.000128279910359907,-0.00437183584433143,0.000319963773704579,-5.43064826477035e-05,2.65766740161766e-05,-0.000215672348597984,-0.000523889279528511,0.000194298541212667,8.30330393410961e-05,-0.000577152754305033,8.6601754567539e-06,-0.000519482297082874,1.75168126013148e-05,-0.0027033174133102,-0.00860482888396863,8.78346540407193e-05,-0.00204958901745744,0.000492734935883199,-0.0061664882216137,-0.000646952347794105,-8.81026879335778e-05,-0.00135542899583019,-0.000376501385203731,-0.000387203161022143,0.000161885371995574,-0.00478727845948246,-0.000274812565029592,-0.000374239496868434,-0.00324518743947522,-0.00123407118519658,-0.00291348434638738,-0.00251158121651063,0.000172445468746396,4.83669195787684e-05,-0.00195853095184706,4.30594089184666e-06,-0.00307944905767599,-0.00175982602526448,4.30594089184666e-06,0.000384768436032523,-0.000131391127210279,-0.000449399773168935,0.000357945188316222,0.000167135741963698,-0.00532765653591749,-0.000138679796736874,-0.00565425288826216,7.82847438927092e-05,-0.00293088127304486,-0.00399163998577823,-0.00531939037778173,7.82847438927092e-05,-0.00829920876909718,-0.0009431269325475,0.000703996718756983,-0.00143066496492139,-0.00111784994576603,0.000186209453699959,0.000107592680838486,0.000107592680838486,-3.74714708550883e-05,-7.03872247109771e-05,-0.000264320376617277,7.82847438927092e-05,-0.000170447321046652,-0.00357301700262891,-0.000832003819664529,-5.83953667678827e-05,0.000412473257029866,-5.01704798869795e-05,-0.000267710155389622,-0.00287908180397789,-0.000832003819664529,-0.0017794899105974,-0.00566203190424108,-0.00233110626227173,-0.00743729292569473,-0.000550059336919873,8.30330393410961e-05,-0.000178375610806469,-0.000445280760203559,-0.00103088256487283,-0.00483032780136039
"2:171048202:G:A",-1.7903192986779e-05,-3.32912960034903e-05,-0.000835523120398918,3.76502734749096e-05,-5.43692486321135e-06,2.16644779129638e-05,-0.00020721363963716,-1.7903192986779e-05,5.08393166676058e-06,1.87372735691582e-05,-0.000835523120398918,1.30653618430898e-05,8.36296320194663e-06,7.82847438927092e-05,-0.0164818466910779,-1.7903192986779e-05,0.000117862140366576,1.04266054030688e-05,0.00205388993281996,2.9645908089293e-05,-0.000543305234590896,9.805164382648e-06,1.98590555458011e-05,3.71477935336983e-05,0.000107270953233929,-1.87240526248189e-05,1.0426605403957e-05,4.38989509099486e-06,-1.31943672529999e-05,-9.71872555473041e-05,-9.26729003491999e-06,3.54101471469193e-05,-2.58038745784006e-05,0.000689442006946095,0.000274785716331216,5.08393166676058e-06,0.000606560066138684,3.81469132699763e-05,-7.89864237260574e-05,-5.46989864611547e-05,-7.8986423724281e-05,0.000184268379615382,6.10738888182638e-05,-5.12039849809298e-06,-0.000263800509170409,-4.82917200619326e-05,-9.62610065435854e-05,-8.50887695591496e-06,-1.87240526248189e-05,4.29154631511608e-05,7.93555753553221e-07,-1.15959004727273e-05,6.37710951281178e-05,-6.44631284769659e-05,1.79867952265766e-05,7.15224253680091e-05,-6.55931686992517e-05,-3.61447029373352e-06,1.30653618430898e-05,-8.51782027107006e-05,1.17616158847866e-05,-8.50887695591496e-06,4.23683668877572e-05,-3.20258793911066e-05,-1.00344951761144e-05,1.67028418891491e-05,-4.36298639261423e-06,2.22523354205251e-05,0.000109448407937585,-9.26729003491999e-06,1.10980885885681e-05,0.00083906650833665,8.07062938523728e-05,3.56042640987653e-05,-4.36298639083788e-06,-1.15959004727273e-05,-7.06302828668015e-07,4.98637985533179e-05,4.5677706259184e-05,2.20033701738842e-05,5.29052104818462e-05,0.0011156287049916,0.000188143271186547,3.66393698119083e-05,7.69331730641198e-05,-8.18019960924232e-06,1.92428818337476e-05,7.78077916763209e-06,4.5677706259184e-05,-4.0170672636286e-05,5.29052104818462e-05,5.08393166676058e-06,0.000129911808873118,-1.7091781562506e-05,1.73494283863818e-05,2.10697272287064e-05,0.000127351154601385,4.42935745530448e-05,3.5601113253847e-05,0.0011156287049916,5.71557769095676e-05,2.62538401933909e-05,0.000173042729382011,-1.56644971252007e-05,1.92428818337476e-05,7.78077916763209e-06,-2.12450007754938e-05,3.81469132699763e-05,-0.000163216357291773,-3.13087908399012e-05,5.03143197860823e-05,-7.19721122344197e-06,7.0335488046247e-05,-3.72767989436085e-05,-4.62573883242001e-05,3.98274624533457e-05,0.000128495298187481,4.65737659736121e-05,-0.00017599684699654,3.68764713076786e-06,6.25138221792554e-05,0.000416544108268191,4.38211353674944e-05,5.79784963479213e-05,-3.1546892050649e-05,-0.000138064947959649,-0.000181817413455576,-1.95545265011532e-05,3.68764713076786e-06,2.85419301508938e-05,-2.57497253919325e-05,2.90971600120926e-05,7.78077916763209e-06,8.67392698999936e-06,2.48289386330924e-05,-1.15959004727273e-05,-1.15959004727273e-05,2.68361806030626e-05,-1.95545265011532e-05,-1.15959004727273e-05,1.55833532957672e-05,-8.50887695591496e-06,2.25792706753936e-06,-3.54038847616422e-05,4.89458180004121e-05,3.82241195140409e-05,5.24862784825331e-05,0.000579465972583293,-4.52582291199377e-05,5.7699000644007e-06,6.89443313603988e-05,-7.19721122344197e-06,-2.12450007737175e-05,1.79875912404981e-05,-1.15959004736155e-05,3.40562293041913e-05,-1.22203604124849e-05,1.98590555458011e-05,-8.86542831173287e-05,0.000137313623747914,-3.54038847616422e-05,-5.12039849809298e-06,-3.50994971309859e-05,-1.48312311782917e-05,-2.14350637772753e-06,3.81469132699763e-05,2.10697272287064e-05,2.9645908089293e-05,-2.14350637772753e-06,2.62538401933909e-05,3.86378141534749e-05,0.000137609030029573,3.81469132699763e-05,0.000364282160386864,2.0467961396875e-05,0.000115669904698912,1.10980885885681e-05,-9.63991275275689e-05,2.28334189147361e-05,-1.31943672529999e-05,-2.14350637772753e-06,0.000127970666089716,-4.9327328030202e-05,-2.92724335579919e-05,-9.34327500656806e-05,-7.06302828668015e-07,-1.41784404981138e-05,0.00205388993281996,2.9645908089293e-05,3.81469132699763e-05,-4.82917200610444e-05,6.6453983701642e-05,0.000276143928364725,2.94369903617309e-05,6.76157684234013e-05,0.000144618610382174,8.30981363151295e-05,-0.00023298954349027,-2.38572010546889e-05,2.74115601701652e-05,5.08393166676058e-06,0.000596374212026518,3.01984307258252e-05,-0.001008758086396,-3.63348407663722e-05,-5.83762227446272e-06,-2.38572010555771e-05,1.30653618430898e-05,-1.00344951761144e-05,9.05919197968785e-06,-6.98870076965008e-05,3.29047356881773e-05,-0.000238382868423592,-1.82258219831866e-05,-3.58269924998211e-05,-3.29659457634079e-05,-3.74204519841825e-05,-2.14350637772753e-06,-1.00344951761144e-05,0.000443578392308019,4.38989509099486e-06,2.9645908089293e-05,7.78077916763209e-06,-3.46869167655584e-05,2.22523354205251e-05,8.22014895884848e-05,1.43389289801732e-05,7.11818869802983e-06,-0.00056454928440175,-2.75779638334583e-05,-2.58038745784006e-05,3.68764712987968e-06,-1.31943672529999e-05,-2.56518407573125e-05,0.000166492732209811,-9.62199288787602e-05,-2.92724335579919e-05,2.90971600120926e-05,-4.3294873559141e-05,4.08631275297111e-05,6.69267462267698e-05,0.000127325575595805,-1.95545265020414e-05,2.03660620785584e-05,4.5677706259184e-05,-1.31943672529999e-05,-1.00344951761144e-05,-1.31943672529999e-05,-1.15959004718391e-05,2.16644779111874e-05,-9.86089853949323e-06,0.00083906650833665,-4.3170920530855e-05,-1.65078928855422e-05,7.85340010036606e-05,-3.54038847616422e-05,4.38989509099486e-06,-4.36298639083788e-06,2.16644779129638e-05,4.75028935120747e-06,-2.29760244234711e-05,-9.26729003491999e-06,-2.38572010555771e-05,-1.42075762887828e-06,-3.81113073970596e-05,-7.65298765843525e-05,5.07583677080703e-05,-0.000338534943817415,-1.00344951761144e-05,0.000229035343726203,0.00121115195486343,-1.60713990791095e-05,8.27826607441295e-06,4.75028935031929e-06,0.000541031540469916,3.86378141534749e-05,5.08393166676058e-06,0.00110737719301301,4.06229724765339e-05,1.13863070732023e-05,3.81469132699763e-05,-0.000512239248744883,0.000155510475353893,-5.28720050754217e-05,-1.05429265975232e-05,-1.95545265011532e-05,1.43389289801732e-05,-7.75931180649891e-05,-7.06302828668015e-07,0.00130549262204482,6.73141843368086e-05,-7.06302828668015e-07,-4.52331158085073e-05,1.24173278743811e-05,4.52217622877171e-05,-4.11586496928962e-05,-1.87240526248189e-05,0.000172932197461506,1.37058518845379e-05,-3.22937195749162e-05,-8.50887695591496e-06,0.00111627727646457,4.5677706259184e-05,5.07234935946954e-05,-8.50887695591496e-06,-1.93866217870209e-05,9.45032309784821e-05,0.00084105685835123,-0.000114548634309486,5.08393166676058e-06,-9.29226194923416e-06,-1.31943672521118e-05,0.000230358953641208,1.53015108850241e-06,7.11818869802983e-06,2.38522808642117e-05,-8.50887695591496e-06,2.0467961396875e-05,-0.000131288938455931,-1.23904191751123e-05,5.08393166676058e-06,-4.62573883242001e-05,-0.000236067160066078,1.24173278743811e-05,-0.000139519063188764,-1.23904191751123e-05,-0.000164331394050699,-0.000115852987856435,-6.88212099664298e-06,1.37058518845379e-05,-5.88686617675194e-06,-9.26729003491999e-06,1.47147572739925e-05,0.000118696381806949,0.000102404477765106,0.00123255241525744
