"","15:52599065:C:T","15:52600590:T:C","15:52601033:T:C","15:52601189:C:T","15:52601220:G:A","15:52601403:G:C","15:52602857:C:G","15:52603363:G:A","15:52614149:G:A","15:52620997:C:T","15:52629270:T:A","15:52631356:T:G","15:52631472:G:C","15:52631644:T:A","15:52632215:C:T","15:52635394:T:A","15:52647035:A:G","15:52647037:T:C","15:52647955:T:C","15:52649008:T:A","15:52652971:C:T","15:52653060:C:G","15:52654123:C:T","15:52655712:C:T","15:52657512:C:T","15:52658456:C:T","15:52664689:T:C","15:52665598:T:A","15:52666187:G:T","15:52668247:T:C","15:52670362:G:A","15:52672745:C:T","15:52677771:A:T","15:52679658:T:C","15:52687543:T:C","15:52688898:G:C","15:52693878:G:A","15:52695021:G:A","15:52695129:A:G","15:52695919:T:A","15:52696068:T:C","15:52696097:G:A","15:52696240:A:C","15:52698210:C:G","15:52698930:T:C","15:52699860:C:T","15:52704378:A:G","15:52708502:T:C","15:52708679:G:A","15:52712988:T:C","15:52715620:G:C","15:52728368:T:G","15:52729171:G:T","15:52729182:C:A","15:52730676:G:A","15:52735780:T:C","15:52738349:C:G","15:52740956:A:G","15:52741530:A:G","15:52743644:T:C","15:52744176:T:C","15:52745863:T:A","15:52748298:C:T","15:52751562:A:G","15:52754714:C:T","15:52759665:T:G","15:52760915:A:T","15:52761941:G:C","15:52762506:A:G","15:52764305:C:T","15:52764545:G:A","15:52764561:C:A","15:52764861:T:C","15:52765667:A:C","15:52766302:T:C","15:52766937:C:T","15:52771571:C:T","15:52772900:C:T","15:52775060:C:T","15:52775309:T:C","15:52776032:C:T","15:52776243:G:C","15:52776831:C:T","15:52777470:A:C","15:52777866:C:T","15:52777887:A:G","15:52780852:T:C","15:52782889:A:G","15:52783529:C:T","15:52784792:G:A","15:52784868:C:T","15:52787383:A:T","15:52791472:T:C","15:52796921:T:C","15:52798434:C:G","15:52803078:C:T","15:52811487:G:A","15:52812071:G:C","15:52812934:C:T","15:52817842:T:C","15:52818936:A:C","15:52820786:C:G"
"15:52599065:C:T",0.0596591924323118,3.08722657784699e-05,4.14119846272598e-05,-0.00430432944066972,-0.00271184832329041,-2.11433663155347e-05,1.8234182858734e-05,-0.000238431126023286,-0.000104020886912082,-0.00207710209733136,4.49708250940262e-05,0.000164654890240534,4.32725699948122e-05,-0.00197811323773767,2.72986605045489e-05,-0.00285198524926766,1.04892504904086e-06,1.04892504904086e-06,-0.000343312343067836,-0.000207493907801393,3.04211886010819e-05,-0.000104596017427738,-3.87523954836766e-05,-2.11433663155347e-05,-9.58788732594584e-05,6.07851433231943e-05,-0.00285198524926766,-0.0032777189309785,-6.43295265687627e-05,5.35469331097715e-06,-0.00289866123249549,-0.000338278966347971,-0.00331799292971002,2.72986605054371e-05,-7.5784088744868e-05,1.70845784310814e-05,1.93957690086677e-05,-6.43295265687627e-05,-0.00301341478023076,-0.00169738597771296,-0.00349835018012534,-0.0016347167002575,1.37058518845379e-05,-0.00012903100332462,-0.00197811323773767,-0.000169866973206645,3.17945616767901e-06,1.45317385022992e-05,0.000149127152027972,1.37058518845379e-05,-0.000443098671561337,0.000169150611603719,-2.30785079420315e-05,1.45317385022992e-05,1.48205897207987e-05,1.37058518845379e-05,-0.000120644250764634,-0.000759751838418588,-1.28347736954026e-05,1.37058518845379e-05,-0.000721247055722074,4.45399261010948e-05,-0.00200246885801825,-1.91662664814629e-05,-0.00267002194116728,0.000236697869491209,-1.28347736954026e-05,-1.81615566576809e-05,1.37058518845379e-05,2.84777748458254e-05,1.93957690086677e-05,3.4557445749428e-05,1.37058518845379e-05,-0.0041421049111392,8.62600628765975e-05,3.83934245062889e-05,2.05695227446512e-05,1.37058518845379e-05,-0.00337679954208348,1.04892504904086e-06,-0.000120644250764634,1.37058518845379e-05,-5.63055098732335e-05,3.08722657775817e-05,-0.00197811323773767,7.57604324963523e-06,-3.52039672613103e-06,0.000149914694587139,-1.81615566576809e-05,-1.1842850468291e-05,3.08722657784699e-05,1.45317385022992e-05,2.05695227446512e-05,7.15045075470044e-05,1.37058518845379e-05,-7.85923227599739e-05,1.04892504904086e-06,4.71137141913047e-05,1.93957690086677e-05,-0.00224415352780483,-0.00267002194116728,2.72986605045489e-05
"15:52600590:T:C",3.08722657784699e-05,0.144677716318032,-6.91125357734634e-05,-0.000241087415425056,-0.00786556357593682,2.7817163615218e-05,-2.6966789422822e-05,-0.0146564011143848,0.000130921210552692,-0.000237784782475714,-0.00356721753639277,7.5016787161708e-05,-6.38300164697014e-05,1.12795477162919e-05,-3.94218642831845e-05,-0.00291074052903806,-1.6848761470456e-06,-1.6848761470456e-06,-0.000732116577465192,-7.53551511945005e-06,-0.00130729202644986,0.000131832792667375,4.84480561642187e-05,2.7817163615218e-05,-0.0016039424243397,-9.16247650355473e-05,-0.00291074052903806,-0.00313254643783356,-0.0124012590122691,-8.63561512787214e-06,-8.9263729778466e-05,-0.0150500748456359,-6.81606334760332e-05,-3.94218642831845e-05,-0.00238263503046987,-2.50790646072474e-05,-2.88783458888275e-05,-0.0124012590122691,-4.73967683420895e-05,-0.000149234994712089,-0.000369211636952471,-0.0160844717248043,-1.95545265011532e-05,-0.00172079254731816,1.12795477162919e-05,-0.00304120227576554,-5.11721772245011e-06,-2.36375569047098e-05,-0.00847036559873882,-1.95545265011532e-05,-0.000310201788399134,-0.00147319504406518,3.08722657784699e-05,-2.36375569047098e-05,-2.13733578782183e-05,-1.95545265011532e-05,0.000150713223203702,-0.00950186731251179,1.7691803494202e-05,-1.95545265011532e-05,-0.00153106252208701,-0.00124703060860121,-0.00427385329073804,2.4684667807584e-05,-2.6966789422822e-05,-0.00150563374498436,1.7691803494202e-05,2.30884760519245e-05,-1.95545265011532e-05,-4.13785014012902e-05,-2.88783458888275e-05,-0.00102904701643158,-1.95545265011532e-05,0.000368571296819553,-0.000132509550603288,-0.00356467506255687,-3.08141857994215e-05,-1.95545265011532e-05,-0.00320564576989835,-1.6848761470456e-06,0.000150713223203702,-1.95545265011532e-05,7.18389438496558e-05,-0.00170635620602244,1.12795477162919e-05,-1.22433301310565e-05,-0.00399561862492437,6.20847624777099e-05,2.30884760519245e-05,1.61181202766869e-05,-4.53654902701217e-05,-2.36375569047098e-05,-3.08141857994215e-05,-0.000108224184548256,-1.95545265011532e-05,0.00010197959699898,-1.6848761470456e-06,-7.03675302933249e-05,-2.88783458888275e-05,-0.000155000350535062,-2.6966789422822e-05,-3.94218642831845e-05
"15:52601033:T:C",4.14119846272598e-05,-6.91125357734634e-05,0.104808963807511,-0.00172140291035783,-0.00366468195302216,-0.00261516489972369,-0.000367306434691628,-0.00264766069130884,0.000108844664181262,-0.00510971741708488,-0.00207769911128786,-0.000518468765003277,-9.94841966184268e-05,1.54028403045459e-05,-5.75539755232057e-05,-0.00010427421286785,-2.46591119168471e-06,-2.46591119168471e-06,-0.00274625392998118,-0.000296669890002654,-0.00215974663261509,-0.00323968661869234,-0.000786772910753797,-0.00261516489972369,-0.000107115656160062,0.00135616937601757,-0.00010427421286785,-0.00351990630505128,0.000103122616824436,-1.15594560821108e-05,-0.00130723475627992,-0.00108593686708813,-0.000107154737597703,-5.75539755232057e-05,-0.000180720892704933,-0.00177403283453348,-0.00185069075608979,0.000103122616824436,-7.25320555474696e-05,-0.00437236324717283,-0.00055935939129359,-0.00176940508315315,-3.75126009242166e-05,-0.00102504797275227,1.54028403045459e-05,-0.000882851852865851,-0.000985591692010068,-0.00122673428101105,-0.0020428252597986,-2.85502515549041e-05,-0.00214590318899033,-0.00146389193490037,-0.00140470900167244,-0.00122673428101105,-3.13832390901325e-05,-2.85502515549041e-05,3.97732357946268e-05,-0.00123508619891943,2.43256648539969e-05,-3.75126009242166e-05,-0.00207325165546379,-0.00359562985478945,-0.00200500369175227,-0.000852663893728511,-4.02115801554359e-05,-0.00231891516348437,2.43256648539969e-05,-0.0016726760718182,-2.85502515549041e-05,-6.24667446675886e-05,-0.00185069075608979,-0.0035863804599563,-3.75126009242166e-05,-0.000827857757448758,0.00157185996034404,-0.000143437376408428,-0.000418801193388774,-2.85502515549041e-05,-0.00883628979264639,-2.46591119168471e-06,3.97732357946268e-05,-3.75126009242166e-05,-8.46472259281583e-05,-0.00280328876382718,1.54028403045459e-05,-0.000492293221650897,-0.00505838129731995,-0.000560845703710733,-0.0016726760718182,2.21579403314465e-05,-0.00149051381663234,-0.00122673428101105,-0.000418801193388774,-0.00107826367042563,-2.85502515549041e-05,-0.000119022392853552,-2.46591119168471e-06,0.000916298207813249,-0.00185069075608979,-0.00221807113311545,-4.02115801554359e-05,-5.75539755232057e-05
"15:52601189:C:T",-0.00430432944066972,-0.000241087415425056,-0.00172140291035783,0.165973770052493,-0.000486871966705937,-0.0010833068313838,-0.00141562079294744,-0.00230320809713058,-0.00170704199472205,0.000587710097838645,-0.0013110696001255,-0.00153862304744967,-0.000349682480932145,-0.00466609504808879,-0.000209849221338487,-0.000471866796718068,-9.3543117527517e-06,-0.00297824118793866,-0.00195811898639864,-0.00228984737968219,-0.00072607285878501,-0.00139865806458106,-0.000219319536535867,-0.0010833068313838,-0.00037471278498824,-0.00182225612056808,-0.000471866796718068,-0.0012768307695139,-0.00157956744814491,-0.00217645372638486,-0.00358756568668372,-0.00223194625389445,-0.0026542259869311,-0.000209849221338487,-0.00440072214007703,-0.000177541969834216,-0.00311423437571356,-0.00157956744814491,-0.00147038767596719,-0.00106867547065947,-0.00488969565383979,-0.00426007573208143,-0.000125999976625657,-0.000768298269357093,-0.00466609504808879,-0.00159896152857719,-0.000967604092549479,-0.0016677051947438,-0.0066493871724429,-9.23581216687452e-05,-0.00226469553915409,-0.00247747419324984,-0.000586625450005762,-0.0016677051947438,-0.000103946036912994,-9.23581216687452e-05,-0.00273855857959138,-0.0024656959690188,7.26967001494216e-05,-0.000125999976625657,-0.00379889529199584,-0.000367729200132949,-0.00833946179674205,3.92790653860331e-05,-0.00158913960590379,-0.0045292379679891,7.26967001494216e-05,-0.00158265755162734,-9.23581216687452e-05,-0.00116719146330979,-0.00311423437571356,-0.00115253340487431,-0.000125999976625657,-0.00837055567960476,0.000974111465481542,-0.000516658039344531,-0.000296262109032774,-9.23581216687452e-05,-0.00220341609971086,-9.3543117527517e-06,-0.00273855857959138,-0.000125999976625657,0.000295325170893701,-0.000241087415425945,-0.00466609504808879,-0.00423266352023433,-0.00157678900881919,-0.00241076135078888,-0.00158265755162734,-0.00139971411050599,-0.00168568881122777,-0.0016677051947438,-0.000296262109032774,-0.000791526212832849,-9.23581216687452e-05,-0.000733859526407699,-9.3543117527517e-06,-0.00126339556109656,-0.00311423437571356,-0.00136122799370675,-0.00158913960590379,-0.000209849221338487
"15:52601220:G:A",-0.00271184832329041,-0.00786556357593682,-0.00366468195302216,-0.000486871966705937,0.25382351189377,-0.000182301144777242,-0.00130258721971899,-0.00131197656763726,-0.00116238396564583,-0.00153005786349247,-0.00532812665556293,-0.00601561932890782,-0.000223730910517084,-0.00586412222010413,8.67758031919408e-06,0.000257662840534856,-0.00360212589412168,-0.00363737595974989,-0.00272835308871855,-0.00694648297300038,-0.00137144962486513,-0.00439318387015675,-0.00323359393808342,-0.000182301144777242,-0.00074349936648499,-0.00147179396536767,0.000257662840534856,-0.00120421740267762,-0.000569790394218117,-0.000558836378773186,0.00027826435205025,-0.000920216170375632,-0.000549593054489428,8.67758031919408e-06,-0.000721600400436451,4.67685899137038e-05,-0.000702670020426233,-0.000569790394218117,-0.000331317244833151,0.000396584265793809,-0.00783194868728065,-0.00323160727614402,0.000129978745046166,-0.00426802873041554,-0.00586412222010413,-0.00112694495304089,-0.00629544626571654,-0.0118739216679682,-0.00658940244163908,-0.000129810041682887,-0.000701641648604312,-0.00641521340897899,-0.000213654243069961,-0.0118739216679682,-0.00521407016801856,-0.000129810041682887,-0.00131064085921206,-0.00172371340534605,0.000397009108120017,0.000129978745046166,-0.00795905074113179,-0.00255177405032381,-0.00526117569696538,-0.00113736820480437,-0.00064035795616757,-0.0103687216601029,0.000397009108120017,-0.0034756484009737,-0.000129810041682887,-0.00267417354967492,-0.000702670020426233,0.000207032835638721,0.000129978745046166,-0.00446693119764463,-0.00730587855518738,-0.000558304473232241,7.72969576230409e-05,-0.000129810041682887,-0.00170684505347651,-0.00360212589412168,-0.00131064085921206,0.000129978745046166,-0.00293659210569786,-0.00572239973460942,-0.00586412222010413,1.5610675021982e-05,-0.00524496386566042,-0.00749169964451202,-0.0034756484009737,8.99772545164268e-05,-4.53755827054536e-05,-0.0118739216679682,7.72969576230409e-05,-0.00169204977367166,-0.000129810041682887,-0.00112541826695267,-0.00360212589412168,-0.00544397352933856,-0.000702670020426233,-1.32595910340427e-05,-0.00064035795616757,8.67758031919408e-06
"15:52601403:G:C",-2.11433663155347e-05,2.7817163615218e-05,-0.00261516489972369,-0.0010833068313838,-0.000182301144777242,0.0730191926991086,1.65156242726283e-05,-0.00199054999362502,-0.00370763104198613,0.000124158790921314,-0.00250357725608374,-0.00290894009954279,3.88009087393115e-05,-8.01303759523364e-06,2.46138519592876e-05,3.79910840653253e-05,9.59432490788004e-07,9.59432490788004e-07,-0.00524626550566865,-0.00260094463227389,-0.00263319683339169,-9.81957176113823e-05,-3.56250954594017e-05,0.000271749593170334,-0.0030771727687986,5.41551758166392e-05,3.79910840653253e-05,-9.86052237266222e-05,-5.97159488071597e-05,4.89123470348574e-06,5.29684376076034e-05,-0.00179453104960459,4.10576083966774e-05,2.46138519601757e-05,-0.000563716790797031,1.54763663440249e-05,1.75648969786835e-05,-5.97159488071597e-05,2.89050804971325e-05,8.28404748212108e-05,-0.00434223890617158,-0.00344018494455423,1.24173278743811e-05,-0.00285052804999708,-8.01303759523364e-06,-0.00189842887159486,2.90625456322857e-06,-0.00255046233529477,3.20235513644462e-05,1.24173278743811e-05,-8.69951280160208e-05,-0.000117931495461576,-2.11433663155347e-05,-0.00255046233529477,1.34273512033545e-05,1.24173278743811e-05,-0.00407030848729928,-0.00095423995859889,-1.17277497375667e-05,1.24173278743811e-05,-0.00302704629020045,3.99240642607879e-05,0.00017359556264207,-1.7513331596497e-05,1.6515624270852e-05,-0.00308666346978992,-1.17277497375667e-05,-1.65823923419239e-05,1.24173278743811e-05,2.56716824020842e-05,1.75648969786835e-05,-0.00217144835865479,1.24173278743811e-05,-0.000806693617556142,-0.0014321223002387,3.46061142089127e-05,1.8624323292471e-05,1.24173278743811e-05,-0.000201744891834998,9.59432490788004e-07,-0.00407030848729928,1.24173278743811e-05,-5.20971170407947e-05,2.78171636143298e-05,-8.01303759523364e-06,6.9154646809011e-06,-0.00295340648026521,-4.62365872193615e-05,-1.65823923419239e-05,-1.08127263507285e-05,2.7817163615218e-05,-0.00255046233529477,1.8624323292471e-05,6.34173442985997e-05,1.24173278743811e-05,-7.32611015283879e-05,9.59432490788004e-07,4.22016757815058e-05,1.75648969786835e-05,8.64559772431051e-05,1.6515624270852e-05,2.46138519592876e-05
"15:52602857:C:G",1.8234182858734e-05,-2.6966789422822e-05,-0.000367306434691628,-0.00141562079294744,-0.00130258721971899,1.65156242726283e-05,0.0787304453185449,-0.000382218312153348,7.52495537463815e-05,-0.00127102149229508,-4.10358547977552e-05,-0.00122633786967796,-3.81626973471327e-05,6.78625804262367e-06,-2.3481808076653e-05,-3.83143424986798e-05,-9.66290887305377e-07,-9.66290887305377e-07,-0.00034218972074207,-0.000667277792419263,-2.77311201504205e-05,7.57202667536205e-05,2.88790144322704e-05,1.65156242726283e-05,-0.00220719764571076,-5.50329833375329e-05,-3.83143424986798e-05,5.48586087401048e-06,4.89709919335723e-05,-0.00180595192219624,-5.36171468663582e-05,-0.000345864876241109,-4.07309218344309e-05,-2.3481808076653e-05,5.6614955167511e-05,-1.48014111820416e-05,-0.00307062291421278,4.89709919335723e-05,-2.81597606308637e-05,-0.00156006595952807,-0.00295591741846479,-0.000157256027103259,-1.15959004727273e-05,-0.00206139440063513,6.78625804262367e-06,-0.000364883669524474,-2.9370039582588e-06,-0.00268701879419453,-0.000154953865854068,-1.15959004727273e-05,-0.00367456844998681,-0.00568264190119816,1.8234182858734e-05,-0.00268701879419453,-1.26504072346378e-05,-1.15959004727273e-05,8.6029867394366e-05,-0.00340738268189344,1.04289585758366e-05,-1.15959004727273e-05,-0.00552777953112304,-3.94381423136636e-05,-0.00277817310294903,-0.00195257141398031,-1.58984600471257e-05,-0.00504174260891777,1.04289585758366e-05,-0.00476789478578876,-1.15959004727273e-05,-2.46281179734353e-05,-0.00307062291421278,-3.05945586243084e-05,-1.15959004727273e-05,-0.000640268765351948,-8.03561498550209e-05,-0.00148371848515705,-1.8137085120884e-05,-1.15959004727273e-05,-5.89376486370696e-06,-9.66290887305377e-07,8.6029867394366e-05,-1.15959004727273e-05,4.22003510465174e-05,-2.6966789422822e-05,6.78625804262367e-06,-7.03805163926319e-06,1.95340102582264e-06,-0.00129496524638473,-0.00476789478578876,9.53596467745399e-06,-2.69667894219339e-05,-0.00268701879419453,-1.8137085120884e-05,-6.53193081889825e-05,-1.15959004727273e-05,-0.00141764235554742,-9.66290887305377e-07,-4.20413848232215e-05,-0.00307062291421278,-9.41454300180666e-05,-1.58984600471257e-05,-2.3481808076653e-05
"15:52603363:G:A",-0.000238431126023286,-0.0146564011143848,-0.00264766069130884,-0.00230320809713058,-0.00131197656763726,-0.00199054999362502,-0.000382218312153348,0.202739221279956,-0.00164191190927276,-0.0058554593717397,-0.00279210441376154,-0.00215859623851156,-0.000903972941945774,-0.00140772683761092,-0.000140509693127733,-0.00395429289843419,-0.00381574257317929,-0.00398157809652933,-0.00182639301652676,-0.000106345350919135,-0.00134390098704706,-0.00338068281782355,-0.0035539537840088,-0.00199054999362502,-0.000610194792380447,-0.00259592753322924,-0.00395429289843419,-0.00182779559835211,0.000152922329255567,-3.03643174976997e-05,-0.000157097488494351,-0.00313314078600246,-7.10720885539473e-05,-0.000140509693127733,-0.00116718612528599,-0.00621450656154288,-0.00106689360260681,0.000152922329255567,6.52566625580775e-05,-0.00736711177918314,-0.00199023641746354,-0.00466488082519412,-0.000125254434702349,-0.00139227309694911,-0.00140772683761092,-0.00254070487260982,-0.00529014391306148,-7.97338443185858e-05,-0.0094548298153776,-2.3764135381299e-05,-0.00773426665787857,-0.00255328585847847,-0.000638747714423182,-7.97338443185858e-05,-0.00531514682537804,-2.3764135381299e-05,-0.00128469494612071,-0.00620127669243775,1.30012987327177e-05,-0.000125254434702349,-0.00287975554820363,-0.00783319005011585,-0.00479658844203312,5.12786359685435e-06,-6.13939840219402e-05,-0.00224083577011758,1.30012987327177e-05,-0.0011938907181146,-2.3764135381299e-05,-0.00245621029112986,-0.00106689360260681,-0.0022835207513463,-0.000125254434702349,-0.00192687416205883,-0.00173405271048388,-0.000323849984240177,-7.33147973477344e-05,-2.3764135381299e-05,-4.43614695382344e-05,-0.00381574257317929,-0.00128469494612071,-0.000125254434702349,-0.000233974612150245,-0.00620856273631532,-0.00140772683761092,-0.0019796943344641,-0.000365060833334763,-0.00044594702667089,-0.0011938907181146,-0.00145728505746145,-0.00230113254531528,-7.97338443185858e-05,-7.33147973477344e-05,-0.000905568470304097,-2.3764135381299e-05,0.000178749464814665,-0.00381574257317929,-0.0044530137948966,-0.00106689360260681,-0.00114780659664993,-6.13939840219402e-05,-0.000140509693127733
"15:52614149:G:A",-0.000104020886912082,0.000130921210552692,0.000108844664181262,-0.00170704199472205,-0.00116238396564583,-0.00370763104198613,7.52495537463815e-05,-0.00164191190927276,0.0973079352418007,0.000620701385373401,0.00018216088622669,-0.000193665778029484,0.000185639246234715,-4.25270590751481e-05,-0.00201434551881174,-0.00134884141899416,3.64083634885048e-06,3.64083634885048e-06,-0.00164638701651354,-0.000116255333288962,0.00011871912949335,-0.00113580102608335,-0.0024631768312684,-0.00370763104198613,-0.00250719923328102,0.000259401309064877,-0.00134884141899416,-0.00203624503198707,-0.000572461662801338,1.86094100778078e-05,0.000254323950048985,-0.00200243227219454,0.000195018171016414,-0.00201434551881174,-0.00442785413568547,-0.00200695920546945,7.93796572828853e-05,-0.000572461662801338,0.00013532359927293,0.00039432107887194,4.90689709016223e-05,-0.00429356873901687,-0.000907951763208459,-0.00345971106698251,-4.25270590751481e-05,-0.00249081026147469,1.10427436439409e-05,-0.00180942033893405,-0.00279680625886591,-0.000907951763208459,-0.000481942457573492,-0.000668302657695463,-0.000906042047371436,-0.00180942033893405,6.31280839140658e-05,-0.000907951763208459,0.0020319546047789,-0.00287885762836515,-5.61941529069188e-05,-0.000907951763208459,-0.00789095892271607,0.000190303199506303,0.000572399183705663,-9.11074616807284e-05,7.52495537463815e-05,-0.0080494283818453,-5.61941529069188e-05,-0.00116729733796372,-0.000907951763208459,0.000122259172501415,7.93796572828853e-05,0.000144275057850862,-0.000907951763208459,0.000841552360948405,-0.000957447930798772,-0.000124342798288879,-0.00270466350506471,-0.000907951763208459,-0.00191235910711551,3.64083634885048e-06,0.0020319546047789,-0.000907951763208459,-0.00116006089772647,0.000130921210552692,-4.25270590751481e-05,2.6346379918607e-05,-2.45602687840574e-05,-0.00383690569870332,-0.00116729733796372,-0.000893389839237813,-0.000365964673497921,-0.00180942033893405,-0.00270466350506471,-0.00155963462252373,-0.000907951763208459,-0.000346177398954595,3.64083634885048e-06,0.000199784996683938,7.93796572828853e-05,0.000418975767961349,7.52495537463815e-05,-0.00201434551881174
"15:52620997:C:T",-0.00207710209733136,-0.000237784782475714,-0.00510971741708488,0.000587710097838645,-0.00153005786349247,0.000124158790921314,-0.00127102149229508,-0.0058554593717397,0.000620701385373401,0.120550422858433,-0.00188199144423074,-0.000882536058173677,-0.000329173552978013,-0.00253456175735867,-0.000199948533835759,-0.00036116034347522,-1.09173774012206e-05,-0.00243200399768284,-0.00749653898166569,-0.00150295005756718,-0.00164933101639075,0.000627781657516202,-0.00149294149864243,0.000124158790921314,-0.00209278484477426,-0.000479115039303757,-0.00036116034347522,-0.000222639279528813,0.00040827529748011,-5.60716733186695e-05,-0.000972777158137816,-0.00535495013026299,-0.000742527207481025,-0.000199948533835759,0.000463906780051815,-0.000134599482001896,-0.000159062282344635,0.00040827529748011,-0.000803615774692901,-0.00301030709827188,-0.00136790897331185,-0.000180816990566601,-9.91201090370097e-05,-0.00242290043672178,-0.00253456175735867,-0.00827662464396273,-0.00305475126892318,-0.000229399718655543,-0.00141017892249717,-9.91201090370097e-05,-0.00194210852776289,-0.00205998163975085,0.000144553437328554,-0.000229399718655543,-0.000110788879751134,-9.91201090370097e-05,0.000723561611483348,-0.00238604334347636,8.7251473555483e-05,-9.91201090370097e-05,-0.00289601896879077,-0.000342777540506489,-0.00158635437352572,-0.00253461712480174,-0.000921919618937395,-0.000773580030003274,8.7251473555483e-05,-0.00241133196112919,-9.91201090370097e-05,-0.000212391286978253,-0.000159062282344635,-0.00743489470927194,-9.91201090370097e-05,-0.000593975611243636,-0.00095969089305914,-0.00207184539896765,-0.000266410994369082,-9.91201090370097e-05,-9.03220981260944e-05,-1.09173774012206e-05,0.000723561611483348,-9.91201090370097e-05,-0.00155824413687355,-0.000237784782475714,-0.00253456175735867,-0.00147214648567662,-0.00532108922234986,-7.69123599830834e-06,-0.00241133196112919,-0.00461414329072785,-0.000237784782473938,-0.000229399718655543,-0.000266410994369082,-0.00144044661665976,-9.91201090370097e-05,-0.00111098166233958,-1.09173774012206e-05,-0.000370552395243529,-0.000159062282344635,-0.000768741145137142,-0.000921919618937395,-0.000199948533835759
"15:52629270:T:A",4.49708250940262e-05,-0.00356721753639277,-0.00207769911128786,-0.0013110696001255,-0.00532812665556293,-0.00250357725608374,-4.10358547977552e-05,-0.00279210441376154,0.00018216088622669,-0.00188199144423074,0.130885603285845,-0.00102821578030809,-9.79004800676364e-05,1.62995680934586e-05,-5.9721728648654e-05,-0.00385909439302079,-2.59830893778457e-06,-2.59830893867274e-06,-0.00334359031842224,-0.000895267568710167,-0.000269672523040221,0.000183397296106946,-0.00217414497123691,-0.00250357725608374,-0.00211091399620145,-0.000142402734487845,-0.00385909439302079,-0.00632376099420906,-0.00398366853057119,-1.337091003073e-05,-0.000138485926449938,-0.00407133574848251,-0.000104950977468654,-5.9721728648654e-05,-0.00840396685406297,-0.00166949534107186,-4.40582051162153e-05,-0.00398366853057119,-7.24737569539613e-05,-0.00118999054243218,-0.00359539837894918,-0.00608987505858671,-2.9375926131614e-05,0.000142502941309353,1.62995680934586e-05,-0.000211455887420886,-7.90714558185357e-06,-3.6914656201148e-05,-0.00125766323585275,-2.9375926131614e-05,-0.00208389236847806,-0.00130958350919474,4.49708250940262e-05,-3.6914656201148e-05,-3.22282768303594e-05,-2.9375926131614e-05,0.000207697681828378,-0.00255078803351205,2.60659584467859e-05,-2.9375926131614e-05,-0.00125732811430801,-0.0035873411045495,-0.00420773027279608,3.56427256322789e-05,-4.10358547977552e-05,-0.00126809302180053,2.60659584467859e-05,3.32244986456232e-05,-2.9375926131614e-05,-6.28406075300347e-05,-4.40582051162153e-05,-0.0040137005796641,-2.9375926131614e-05,-0.00243223835221773,-0.000208804676123719,-0.00252077844183773,-5.76778037499892e-05,-2.9375926131614e-05,-0.00640493097526207,-2.59830893778457e-06,0.000207697681828378,-2.9375926131614e-05,-0.00232926425829838,-0.00379095135379259,1.62995680934586e-05,-1.89962790093645e-05,-0.00436605069955576,8.8049143414537e-05,3.32244986456232e-05,2.3676156093444e-05,-0.00138645340838295,-3.6914656201148e-05,-5.76778037499892e-05,-0.000168917573887484,-2.9375926131614e-05,0.000144237872211406,-2.59830893778457e-06,-0.000108555547054578,-4.40582051162153e-05,-0.00645016772159579,-4.10358547977552e-05,-5.9721728648654e-05
"15:52631356:T:G",0.000164654890240534,7.5016787161708e-05,-0.000518468765003277,-0.00153862304744967,-0.00601561932890782,-0.00290894009954279,-0.00122633786967796,-0.00215859623851156,-0.000193665778029484,-0.000882536058173677,-0.00102821578030809,0.154280522398734,0.000104009618482337,5.58967422543688e-05,6.71166689567571e-05,-0.00421980030711833,2.41948864765362e-06,2.41948864676544e-06,-0.00171284872393507,-0.00526459562125137,-0.00222035142362209,-0.00271208876925311,-0.0016141995378387,-0.00290894009954279,-0.0003128449976737,0.000142585735482648,-0.00421980030711833,-9.12636939087719e-05,-0.0044549575052315,-0.00505678300198831,-0.000277666063797533,-0.000955824690370921,-0.000532870455406176,6.71166689567571e-05,-0.00727535686717751,4.18716730274937e-05,-0.00491542411327828,-0.0044549575052315,-0.00323449626573868,-0.000424697092641146,-0.0161968347288477,-0.00250811858635069,3.42316178576496e-05,-0.000321872530490097,5.58967422543688e-05,-0.000439112615001847,7.3249544492171e-06,-0.0038602152097722,-0.000240136303530925,3.42316178576496e-05,-0.00333221677062978,-0.00818052043530049,0.000164654890240534,-0.0038602152097722,3.67561863638954e-05,3.42316178576496e-05,-0.000416787512531158,-0.00076298361600724,0.000110456829053973,3.42316178576496e-05,-0.00112952567868518,0.000106731757299805,0.000261198910433968,-0.0053339258622902,-0.0029091507364889,0.000308883129097381,0.000110456829053973,-0.00132131665359925,3.42316178576496e-05,6.97283367792068e-05,-0.00491542411327828,-0.00174916965129768,3.42316178576496e-05,-0.000133937378274052,-0.00349769918078291,-0.00159825668793712,-0.000767141342868705,3.42316178576496e-05,-4.75095122425273e-05,2.41948864765362e-06,-0.000416787512531158,3.42316178576496e-05,-0.00153041881755378,7.50167871625962e-05,5.58967422543688e-05,-0.00188963996767644,-0.000233624642746122,0.00200125642834781,-0.00132131665359925,-3.09362242347788e-05,7.50167871634844e-05,-0.0038602152097722,-0.000767141342868705,-0.000937357754197343,3.42316178576496e-05,-0.000873785701323904,2.41948864765362e-06,0.000112239729629593,-0.00491542411327828,-0.00239654640716758,-0.0029091507364889,6.71166689567571e-05
"15:52631472:G:C",4.32725699948122e-05,-6.38300164697014e-05,-9.94841966184268e-05,-0.000349682480932145,-0.000223730910517084,3.88009087393115e-05,-3.81626973471327e-05,-0.000903972941945774,0.000185639246234715,-0.000329173552978013,-9.79004800676364e-05,0.000104009618482337,0.0138627474816957,1.55588045096522e-05,-5.53164421326358e-05,-9.13465128009605e-05,-2.44070925159434e-06,-2.44070925159434e-06,-0.000785585290157265,-1.27471031605708e-05,-6.72674309640797e-05,0.000187039109263765,-0.000798622519565306,3.88009087393115e-05,-0.00070451219459855,-0.000128309736631138,-9.13465128009605e-05,-0.000178373964148548,0.000119230186765407,-1.25011515796913e-05,-0.00023165142640913,-0.000952622477837117,0.00222812281466123,-5.53164421317476e-05,0.00013797964353035,-3.54461511440363e-05,-4.09125606770644e-05,0.000119230186765407,0.00182914610750551,-0.00020876555681415,-0.000507132703871704,-0.000636868443271155,-2.74904783212904e-05,-0.000392958177982017,1.55588045096522e-05,-0.0010330918555832,-7.41033550344383e-06,-0.000963744344421258,-0.00034960492762881,-2.74904783212904e-05,8.26684179751069e-05,-7.99446325752129e-05,4.32725699948122e-05,-0.000963744344421258,-3.01106211608726e-05,-2.74904783212904e-05,0.000214464078721832,0.00025619390572551,2.48945964180791e-05,-2.74904783212904e-05,-0.000124166672453185,-9.25672100295927e-05,-0.000514445309593548,3.42188225843643e-05,-4.88202297939111e-05,-0.000100992100339425,2.48945964180791e-05,3.18850857148334e-05,-2.74904783212904e-05,-5.81201300686729e-05,-4.09125606770644e-05,-7.2660648076095e-05,-2.74904783212904e-05,-0.00113838385398868,-0.00018466968691655,-8.66166033084426e-05,-4.36963567382875e-05,-2.74904783212904e-05,-3.00901211636173e-05,-2.44070925159434e-06,0.000214464078721832,-2.74904783212904e-05,-0.000807898323582634,-6.38300164714778e-05,1.55588045096522e-05,-1.77176378848287e-05,3.23265832768982e-06,8.60788930356904e-05,3.18850857148334e-05,2.2602327941712e-05,-6.38300164697014e-05,-0.000963744344421258,-4.36963567382875e-05,-0.000151123229752415,-2.74904783212904e-05,-0.00312507027907927,-2.44070925159434e-06,-9.88113202815555e-05,-4.09125606770644e-05,-0.00021616979402328,-4.88202297939111e-05,-5.53164421326358e-05
"15:52631644:T:A",-0.00197811323773767,1.12795477162919e-05,1.54028403045459e-05,-0.00466609504808879,-0.00586412222010413,-8.01303759523364e-06,6.78625804262367e-06,-0.00140772683761092,-4.25270590751481e-05,-0.00253456175735867,1.62995680934586e-05,5.58967422543688e-05,1.55588045096522e-05,0.0676390649536183,9.97833832716566e-06,-0.00227210077524731,4.084350075928e-07,4.084350075928e-07,-0.00154796421333181,-6.5689284332926e-05,1.12784118542208e-05,-4.2804293189036e-05,-1.47823827214566e-05,-8.01303759523364e-06,-3.86268983021409e-05,2.14274506831202e-05,-0.00227210077524731,-0.0040379426832482,-2.55490999716557e-05,2.07544683039629e-06,-0.00329443490350201,-0.00155179106367864,-0.0037046578560096,9.97833832716566e-06,-3.03151406404467e-05,6.35576771124136e-06,7.22006821263221e-06,-2.55490999716557e-05,-0.00339105373665216,-0.00211775042962969,-0.00102265634036858,-8.21316738965905e-05,5.08393166676058e-06,-5.33875095101166e-05,6.2070843197759e-05,-0.001154925049347,1.23522016881594e-06,5.57617596985693e-06,4.63492199855864e-05,5.08393166676058e-06,-0.00167981948210372,5.31497714950646e-05,-8.80425685600983e-06,5.57617596985693e-06,5.50463292636749e-06,5.08393166676058e-06,-5.00137723236094e-05,-0.00219570592430962,-4.87614766786493e-06,5.08393166676058e-06,-0.00131708190017754,1.60028430382653e-05,-4.74440906712559e-05,-7.20770652495872e-06,-0.00303871653258714,6.13961965765242e-05,-4.87614766786493e-06,-6.79964320760007e-06,5.08393166676058e-06,1.04089365695614e-05,7.22006821263221e-06,1.26093372081471e-05,5.08393166676058e-06,-0.00334334888675869,2.93832904620928e-05,-0.00215666676323067,7.65722661366652e-06,5.08393166676058e-06,-0.00414559524663805,4.084350075928e-07,-5.00137723236094e-05,5.08393166676058e-06,-2.20068250289529e-05,1.12795477154037e-05,6.2070843197759e-05,2.92938334567339e-06,-1.1779482997909e-06,5.55797249068846e-05,-6.79964320760007e-06,-4.47897512501072e-06,1.12795477171801e-05,5.57617596985693e-06,7.65722661366652e-06,-0.00130609432210793,5.08393166676058e-06,-3.15950248923613e-05,4.084350075928e-07,1.68999694221128e-05,7.22006821263221e-06,-0.00266737743707779,-0.00303871653258714,9.97833832716566e-06
"15:52632215:C:T",2.72986605045489e-05,-3.94218642831845e-05,-5.75539755232057e-05,-0.000209849221338487,8.67758031919408e-06,2.46138519592876e-05,-2.3481808076653e-05,-0.000140509693127733,-0.00201434551881174,-0.000199948533835759,-5.9721728648654e-05,6.71166689567571e-05,-5.53164421326358e-05,9.97833832716566e-06,-0.0239738227206727,-5.58249798201516e-05,-1.46471590767305e-06,-1.46471590767305e-06,-0.000121862618494006,-6.18768781635026e-06,-4.08536105327428e-05,0.000118832072187658,-0.000607407653636649,2.46138519592876e-05,0.000106142596292713,-7.89773546152617e-05,-5.58249798201516e-05,7.06740921341265e-06,7.5256310442029e-05,-7.49601251381904e-06,-7.69895588472735e-05,-0.000130065302323956,-5.89935121428908e-05,0.00411628874259584,8.74073745356085e-05,-2.18562957279289e-05,-2.51265429946912e-05,7.5256310442029e-05,-4.11583411628058e-05,-0.000127139951646704,-0.000303904713727654,-0.000115289336367397,0.00205388993281996,0.000141398453116892,9.97833832716566e-06,6.56548766997389e-06,-4.44527560539143e-06,6.60406485364362e-05,-0.000210662985906218,0.00205388993281996,-0.000101146360097282,0.000139824868262473,2.72986605045489e-05,6.60406485364362e-05,-1.86616060666722e-05,0.00205388993281996,0.000136360836129334,-0.000466267903158624,1.5583353294879e-05,0.00205388993281996,0.000210660469942781,-5.71441367256398e-05,-0.00030808900485102,2.18648926111342e-05,-2.34818080775412e-05,0.000188770228371382,1.5583353294879e-05,2.0465633446598e-05,0.00205388993281996,-3.60093574531817e-05,-2.51265429946912e-05,-4.46935481557276e-05,0.00205388993281996,-6.86891994821082e-05,0.00102653546147646,-5.23587711978024e-05,-2.6790843560498e-05,0.00205388993281996,-9.72756968931066e-06,-1.46471590767305e-06,0.000136360836129334,0.00205388993281996,6.40867617596186e-05,-3.94218642831845e-05,9.97833832716566e-06,-1.06194351445765e-05,2.59140218705767e-06,5.54031592052695e-05,2.0465633446598e-05,1.42063080241783e-05,0.000616244917368114,6.60406485364362e-05,-2.6790843560498e-05,-9.30676251540419e-05,0.00205388993281996,9.13343767479091e-05,-1.46471590767305e-06,-6.0864956571649e-05,-2.51265429946912e-05,-0.000132074809884308,-2.34818080775412e-05,0.00411628874259584
"15:52635394:T:A",-0.00285198524926766,-0.00291074052903806,-0.00010427421286785,-0.000471866796718068,0.000257662840534856,3.79910840653253e-05,-3.83143424986798e-05,-0.00395429289843419,-0.00134884141899416,-0.00036116034347522,-0.00385909439302079,-0.00421980030711833,-9.13465128009605e-05,-0.00227210077524731,-5.58249798201516e-05,0.106123252812784,-2.41860993455134e-06,-2.41860993455134e-06,-0.00853643989886566,-0.00382403567957468,-0.00406614604061062,0.000173535283154891,-0.00190416711750263,3.79910840653253e-05,-0.00387216302083271,-0.00118178331251961,0.00232260004932971,-0.00217109678406135,-0.0037449390318649,-1.24384478628059e-05,-0.000129004638191432,-0.00364048962901586,-9.78608877222342e-05,-5.58249798201516e-05,0.000130399504951306,-0.00155749587777176,-0.00163396374239344,-0.0037449390318649,-6.76360618196981e-05,-0.000221576567685844,-0.000180854324310253,-0.00259528973427026,-2.74908600426116e-05,-0.0035668146951604,-0.00227210077524731,-0.00233500169298262,-0.00201884252203133,-0.00235163786294912,-5.87044198328002e-05,-2.74908600426116e-05,-2.84206937437581e-05,0.000149493680002166,4.22837452704883e-05,-0.00235163786294912,-3.01398369000339e-05,-2.74908600426116e-05,-0.00115696824655664,-0.000232072172965836,2.44629101997518e-05,-2.74908600426116e-05,-0.000164545662663329,-0.00240522132575371,-0.00173342821588385,3.35750849194127e-05,-3.8314342499568e-05,-0.00022421713828269,2.44629101997518e-05,-6.20598176048759e-06,-2.74908600426116e-05,-5.87150979480811e-05,-0.00163396374239344,-7.38011327294785e-05,-2.74908600426116e-05,0.000196963270085782,-0.000194113910620075,-0.00161672306633598,-4.39616973544332e-05,-2.74908600426116e-05,-1.86949861049612e-05,-2.41860993455134e-06,-0.00115696824655664,-2.74908600426116e-05,-0.0017406177510022,-0.00369535216121886,-0.00227210077524731,-1.76658425150578e-05,3.22507041783382e-06,-0.0019830037702997,-6.20598176048759e-06,2.22336970852055e-05,-0.0012724964962274,-0.00235163786294912,-4.39616973544332e-05,-0.000157237505263197,-2.74908600426116e-05,-0.00098115107008212,-2.41860993455134e-06,-0.00129484373268696,-0.00163396374239344,-0.000229660239556395,-3.8314342499568e-05,-5.58249798201516e-05
"15:52647035:A:G",1.04892504904086e-06,-1.6848761470456e-06,-2.46591119168471e-06,-9.3543117527517e-06,-0.00360212589412168,9.59432490788004e-07,-9.66290887305377e-07,-0.00381574257317929,3.64083634885048e-06,-1.09173774012206e-05,-2.59830893778457e-06,2.41948864765362e-06,-2.44070925159434e-06,4.084350075928e-07,-1.46471590767305e-06,-2.41860993455134e-06,0.0484640191155892,-5.51981402807655e-08,-1.95443178254706e-05,-1.37581355197369e-07,-1.70138207700177e-06,-0.00470603617362464,1.64183711337529e-06,9.59432490788004e-07,3.41716478313714e-06,-3.61616806099363e-06,-2.41860993455134e-06,4.04130425124549e-07,2.58012551945797e-06,-0.00413845286131309,-3.51791426389525e-06,-0.00372570119878102,-2.61102580534356e-06,-1.46471590767305e-06,2.91881131619931e-06,-8.99621857897159e-07,-1.03411766527728e-06,2.58012551945797e-06,-1.76080958969038e-06,-6.2155953921561e-06,-1.87170491789956e-05,-0.00399615721337021,-7.06302828668015e-07,4.11018962065413e-06,4.084350075928e-07,-0.00401196105813373,4.8944839274867e-06,-7.97445295575017e-07,-1.15216739509094e-05,-7.06302828668015e-07,-0.00364075198828928,4.15187786639848e-06,1.04892504904086e-06,-7.97445295575017e-07,-0.00145262123686507,-7.06302828668015e-07,3.99001425588352e-06,-0.0033651044166918,6.07392329321499e-07,-7.06302828668015e-07,4.85130735228267e-06,-2.5251342048449e-06,-0.00356337417876595,-0.00387575003960094,-9.66290887305377e-07,4.72312559818278e-06,6.07392329321499e-07,8.19219116543479e-07,-7.06302828668015e-07,-0.00274566935128551,-1.03411766527728e-06,-1.9166755125255e-06,-7.06302828668015e-07,3.57774176062975e-06,-5.50571003010702e-06,-0.00175082810198202,-1.10312916312694e-06,-7.06302828668015e-07,-2.71889864400521e-07,4.89448392837488e-06,3.99001425588352e-06,-7.06302828668015e-07,2.28822675651941e-06,-1.68487614615742e-06,4.084350075928e-07,-4.06885465764617e-07,1.39636069818039e-07,2.04974079398568e-06,8.19219116543479e-07,5.58912898185326e-07,-1.6848761470456e-06,-7.97445295575017e-07,-1.10312916312694e-06,-4.37450962387231e-06,-7.06302828668015e-07,3.00914703288413e-06,4.89448392837488e-06,-2.69841823108408e-06,-1.03411766527728e-06,-6.54725797133437e-06,-9.66290887305377e-07,-1.46471590767305e-06
"15:52647037:T:C",1.04892504904086e-06,-1.6848761470456e-06,-2.46591119168471e-06,-0.00297824118793866,-0.00363737595974989,9.59432490788004e-07,-9.66290887305377e-07,-0.00398157809652933,3.64083634885048e-06,-0.00243200399768284,-2.59830893867274e-06,2.41948864676544e-06,-2.44070925159434e-06,4.084350075928e-07,-1.46471590767305e-06,-2.41860993455134e-06,-5.51981402807655e-08,0.074534898927487,-0.00407126084274001,-1.37581356085548e-07,-1.70138207788995e-06,3.65589852702186e-06,1.64183711337529e-06,9.59432490788004e-07,-0.00364357593829023,-3.61616806099363e-06,-2.41860993455134e-06,4.04130424236371e-07,2.58012551945797e-06,-2.85601567284743e-07,-3.51791426389525e-06,-0.00407360462626194,-2.61102580534356e-06,-1.46471590767305e-06,2.91881131619931e-06,-8.99621857897159e-07,-1.03411766527728e-06,2.58012551945797e-06,-1.76080958969038e-06,-0.00246367003407322,-1.87170491789956e-05,-0.00369020092140104,-7.06302828668015e-07,-0.00351814987469634,4.084350075928e-07,-0.00377479257448599,-1.68433871294837e-07,-0.00404535361013103,-1.15216739509094e-05,-7.06302828668015e-07,-2.43984763743654e-05,-0.00369038418732082,1.04892504904086e-06,-0.00404535361013103,-7.69652941379206e-07,-7.06302828668015e-07,3.99001425588352e-06,-7.0164522861127e-05,6.07392329321499e-07,-7.06302828668015e-07,-0.00357966708982715,-2.5251342048449e-06,-0.00374189567368965,8.66778448127548e-07,-9.66290887305377e-07,-0.00361991246272186,6.07392329321499e-07,8.19219116543479e-07,-7.06302828668015e-07,-1.53685808168547e-06,-1.03411766527728e-06,-1.9166755125255e-06,-7.06302828668015e-07,-0.00331960666449849,-5.50571003010702e-06,-2.21086004170701e-06,-1.10312916401512e-06,-7.06302828668015e-07,-2.71889865288699e-07,-5.51981402807655e-08,3.99001425588352e-06,-7.06302828668015e-07,2.28822675651941e-06,-1.68487614615742e-06,4.084350075928e-07,-4.06885465764617e-07,1.39636069818039e-07,2.04974079398568e-06,8.19219116543479e-07,5.58912898185326e-07,-1.6848761470456e-06,-0.00404535361013103,-1.10312916401512e-06,-4.37450962387231e-06,-7.06302828668015e-07,-0.00284605572058982,-5.51981402807655e-08,-2.69841823197225e-06,-1.03411766527728e-06,-0.00318044448039068,-9.66290887305377e-07,-1.46471590767305e-06
"15:52647955:T:C",-0.000343312343067836,-0.000732116577465192,-0.00274625392998118,-0.00195811898639864,-0.00272835308871855,-0.00524626550566865,-0.00034218972074207,-0.00182639301652676,-0.00164638701651354,-0.00749653898166569,-0.00334359031842224,-0.00171284872393507,-0.000785585290157265,-0.00154796421333181,-0.000121862618494006,-0.00853643989886566,-1.95443178254706e-05,-0.00407126084274001,0.191303251931127,-5.58423890555382e-05,-0.00405515113340327,-0.00270999628240265,-0.00308464179857326,-0.00524626550566865,-0.00166652500994768,-0.00217473201585072,-0.00853643989886566,-0.00358087957286557,0.000283289493096639,-0.000438295864180205,-0.00190170941693779,-0.00323887853400429,-0.00103406294994901,-0.000121862618494006,-0.00409850981673943,-0.00159610798866616,-7.17300900374696e-05,0.000283289493096639,0.000167297636419761,-0.00424206743109901,-0.00332194855169021,-0.0124336723226279,-0.000163216357290885,-0.00110271796702799,-0.00154796421333181,-0.00429662004581477,-0.0050686115913896,-0.00220460269757128,-0.00935265288034026,3.2844861841852e-05,-0.00354648522822165,-0.00239429418914705,-0.000527362420216448,-0.00220460269757128,-0.00144350887394928,3.2844861841852e-05,-0.0015681624345687,-0.00361836255379799,-3.87195248885419e-05,-0.000163216357290885,-0.00257963943852912,-0.00122728938240257,-0.00249835024045941,-0.00049660606946178,2.32601370875329e-06,-0.00216381136911803,-3.87195248885419e-05,-0.000154921776469585,3.2844861841852e-05,-0.00274995061212646,-7.17300900374696e-05,-0.00232538155553197,-0.000163216357290885,-0.00481295077004784,-0.00115238495019954,-8.3645499868279e-05,-0.000434243483264929,3.2844861841852e-05,-0.00182684779931019,-1.95443178254706e-05,-0.0015681624345687,-0.000163216357290885,-0.0004346089878835,-0.000252029951365529,-0.00154796421333181,-0.00367337458224792,-0.000203799720095876,0.000153812840484768,-0.000154921776469585,-0.00151638695583767,-0.000559714540864675,-0.00220460269757128,-0.000434243483264929,-0.000825216786194183,3.2844861841852e-05,-0.000250507782545206,-1.95443178254706e-05,-0.00309203159803229,-7.17300900374696e-05,-0.00441122098610203,2.32601370875329e-06,-0.000121862618494006
"15:52649008:T:A",-0.000207493907801393,-7.53551511945005e-06,-0.000296669890002654,-0.00228984737968219,-0.00694648297300038,-0.00260094463227389,-0.000667277792419263,-0.000106345350919135,-0.000116255333288962,-0.00150295005756718,-0.000895267568710167,-0.00526459562125137,-1.27471031605708e-05,-6.5689284332926e-05,-6.18768781635026e-06,-0.00382403567957468,-1.37581355197369e-07,-1.37581356085548e-07,-5.58423890555382e-05,0.154200027196518,-0.00204710567946798,-0.0029122122594476,-0.00173829402345049,-0.00260094463227301,-0.000269732984381932,-2.26547084398732e-05,-0.00382403567957557,2.05211199144628e-07,-0.00403508933478314,-0.00456581772428333,-0.000412626295236862,-0.00229691007207,-0.00063012428395659,-6.18768781723844e-06,-0.00656760106445464,-3.22772293248619e-06,-0.0054339846029654,-0.00403508933478314,-0.00354821647930681,-0.000895304081786286,-0.00956218411127807,-0.000241014446765053,-2.36027549238571e-06,-0.000194133826424192,-6.5689284332926e-05,-0.00220646673516622,-4.47009557369427e-07,-0.00436774490394587,-0.000122713313965406,-2.36027549238571e-06,6.00140051600917e-05,-0.000760107376932773,-0.000207493907801393,-0.00436774490394587,-2.63471432848661e-06,-2.36027549238571e-06,-0.000299118969723899,-0.000697748301161205,9.00465858322264e-07,-2.36027549238571e-06,-0.00162402343012502,-1.33997720865864e-05,-0.000135642664307767,-0.00477517252110538,-0.00318529172295445,-0.00023045587813364,9.00465858322264e-07,-0.00499124825075459,-2.36027549238571e-06,-6.61856699935015e-06,-0.0054339846029654,-0.0015907801852908,-2.36027549238571e-06,-0.000213689075013512,-0.00396301674203059,-0.00551926902628441,-0.00103052948186555,-2.36027549238571e-06,5.4378263740773e-06,-1.37581355197369e-07,-0.000299118969723899,-2.36027549238571e-06,-0.00160924824560205,-7.53551511945005e-06,-6.5689284332926e-05,-0.00213717811560521,2.94775445572881e-05,7.95355253329078e-05,-0.00499124825075459,8.7227332290496e-07,-7.53551511945005e-06,-0.00436774490394587,-0.00103052948186555,-0.000882856756719619,-2.36027549238571e-06,-0.000897679587199995,-1.37581355197369e-07,-1.47768822200689e-05,-0.0054339846029654,-0.00289928164474862,-0.00318529172295445,-6.18768781635026e-06
"15:52652971:C:T",3.04211886010819e-05,-0.00130729202644986,-0.00215974663261509,-0.00072607285878501,-0.00137144962486513,-0.00263319683339169,-2.77311201504205e-05,-0.00134390098704706,0.00011871912949335,-0.00164933101639075,-0.000269672523040221,-0.00222035142362209,-6.72674309640797e-05,1.12784118542208e-05,-4.08536105327428e-05,-0.00406614604061062,-1.70138207700177e-06,-1.70138207788995e-06,-0.00405515113340327,-0.00204710567946798,0.0947813140439049,0.000119423023483556,-0.00231345361050561,-0.00263319683339169,-0.00228457502105073,-9.83627863941905e-05,-0.00406614604061062,-0.000471211403255012,-0.00363247035315428,-8.77092492945764e-06,-9.56651052668178e-05,-0.00533886873470069,-7.20655337511644e-05,-4.08536105327428e-05,-0.000203614440573929,-0.00177393202902287,-2.97430010949284e-05,-0.00363247035315428,-4.94265156820717e-05,-0.000997164086666835,-0.000493719454551567,-0.00445284553769287,-1.9986561357932e-05,6.27732991809182e-05,1.12784118542208e-05,-0.000573546201804387,-5.18219925638164e-06,-2.43060629818714e-05,-0.00101098095786778,-1.9986561357932e-05,-0.000861159034083681,8.90454587816336e-05,3.04211886010819e-05,-2.43060629818714e-05,-2.18785674670485e-05,-1.9986561357932e-05,0.000134065112399107,-0.0014630319641773,1.75993334945446e-05,-1.9986561357932e-05,0.0001014485974693,-0.00146010935666485,-0.00376589667079674,2.44526034860471e-05,-2.77311201513086e-05,0.000102794664306849,1.75993334945446e-05,2.29018764255073e-05,-1.9986561357932e-05,-4.29475481524833e-05,-2.97430010949284e-05,-0.00353903378508846,-1.9986561357932e-05,-0.00115223880687765,-0.000145815498063584,-0.00237261170396152,-0.00241959568313632,-1.9986561357932e-05,-0.000543420861836452,-1.70138207700177e-06,0.000134065112399107,-1.9986561357932e-05,-0.00248011731431053,-0.00153102584384879,1.12784118542208e-05,-1.24723976293595e-05,-0.00530255601715091,5.98839596355205e-05,2.29018764255073e-05,1.60546742016265e-05,-0.00148130788444067,-2.43060629818714e-05,-0.00241959568313632,-0.000117337256130057,-1.9986561357932e-05,9.48143204908547e-05,-1.70138207700177e-06,-7.45218550237681e-05,-2.97430010949284e-05,-0.00612892200111315,-2.77311201513086e-05,-4.08536105327428e-05
"15:52653060:C:G",-0.000104596017427738,0.000131832792667375,-0.00323968661869234,-0.00139865806458106,-0.00439318387015675,-9.81957176113823e-05,7.57202667536205e-05,-0.00338068281782355,-0.00113580102608335,0.000627781657516202,0.000183397296106946,-0.00271208876925311,0.000187039109263765,-4.2804293189036e-05,0.000118832072187658,0.000173535283154891,-0.00470603617362464,3.65589852702186e-06,-0.00270999628240265,-0.0029122122594476,0.000119423023483556,0.109527518997873,-0.00401521896908807,-9.81957176113823e-05,-0.00256993424822394,-0.00431002894804244,0.000173535283154891,-9.03267456928702e-05,-0.000285225636913466,1.8687554648622e-05,0.000256378821124059,-0.00157562171988657,0.00019648423223817,0.000118832072187658,-0.000339824809092448,7.1614480033233e-05,7.98717431607088e-05,-0.000285225636913466,0.000136261985225872,-0.00311475873400013,0.000157421819626968,-0.00064162383587707,5.95638621856409e-05,-0.00291371189859291,-4.2804293189036e-05,-0.00519721601453194,-0.00304758952388884,-0.00141732097833369,-0.00775911989494027,5.95638621856409e-05,-0.0029670790569889,-0.000473218395161901,-0.000104596017427738,-0.00141732097833369,-0.00223334742893755,5.95638621856409e-05,-0.00103852232715962,-0.0033847051541831,-5.65173035660393e-05,5.95638621856409e-05,-0.00146873292495897,0.000191735854013331,-0.00122060051911621,-0.00139189874263934,7.57202667527324e-05,-0.00135869650932818,-5.65173035660393e-05,-0.00125362107424198,5.95638621856409e-05,-0.00221143928200895,7.98717431607088e-05,0.000145268577457003,5.95638621856409e-05,-0.00155278138412385,0.000375151309396138,-6.38853920236215e-05,8.40696734751845e-05,5.95638621856409e-05,-8.07700250566867e-05,-0.00470603617362464,-0.00103852232715962,5.95638621856409e-05,-0.00370849560482522,0.000131832792667375,-4.2804293189036e-05,2.64578665154502e-05,-2.47750813127112e-05,-0.00139786260872832,-0.00125362107424198,-5.31456467092184e-05,0.000131832792667375,-0.00141732097833369,8.40696734751845e-05,0.000310563902652383,5.95638621856409e-05,-0.000617650338011089,-0.00470603617362464,-0.00469020581240809,7.98717431607088e-05,-0.00427648223683619,7.57202667527324e-05,0.000118832072187658
"15:52654123:C:T",-3.87523954836766e-05,4.84480561642187e-05,-0.000786772910753797,-0.000219319536535867,-0.00323359393808342,-3.56250954594017e-05,2.88790144322704e-05,-0.0035539537840088,-0.0024631768312684,-0.00149294149864243,-0.00217414497123691,-0.0016141995378387,-0.000798622519565306,-1.47823827214566e-05,-0.000607407653636649,-0.00190416711750263,1.64183711337529e-06,1.64183711337529e-06,-0.00308464179857326,-0.00173829402345049,-0.00231345361050561,-0.00401521896908807,0.11670293225255,-3.56250954594017e-05,-0.00076494534378746,9.22379056289557e-05,-0.00190416711750263,-0.00260007970770904,-0.000111746285083925,8.35474226779098e-06,-0.000338828106756672,-0.00333182918592101,-0.00058335664876541,-0.000607407653636649,-0.000133403693884482,-0.00249669330136637,-0.00204685091208567,-0.000111746285083925,-0.000411836688402722,-0.00189978361713372,0.000172830688493164,-0.000891779749315535,-0.000254837345695869,-0.000597163097423525,-1.47823827214566e-05,-0.00530169997057506,4.96884307388257e-06,-0.00245176220369014,-0.00651028202667092,-0.000254837345695869,-0.00241584055181576,-0.000412764570914881,-0.0012862791314161,-0.00245176220369014,2.3676735869671e-05,-0.000254837345695869,-0.00108278073331913,-0.00175106608135112,-2.11995390460018e-05,-0.000254837345695869,-0.00166875905973285,6.89053002558282e-05,0.000150206785288987,-0.00169333477833611,-0.000246420146011062,-0.00174211722423934,-2.11995390460018e-05,-3.08203601049328e-05,-0.000254837345695869,-0.00607425337164713,-0.00204685091208567,5.38934135319025e-05,-0.000254837345695869,-0.00521500048161982,-0.00249467097149747,-0.001996484287349,3.24207802044896e-05,-0.000254837345695869,-0.00246009978822936,1.64183711337529e-06,-0.00108278073331913,-0.000254837345695869,-0.000108620874289755,4.84480561642187e-05,-1.47823827214566e-05,-0.00407139185250127,-6.42215010948632e-06,-0.00160596315268702,-3.08203601049328e-05,-1.9617094070945e-05,-0.000226178201797822,-0.00245176220369014,3.24207802044896e-05,0.000107169986584665,-0.000254837345695869,-0.00117044659112153,1.64183711337529e-06,7.26015102108235e-05,-0.00204685091208567,-0.003325420401187,-0.000246420146011062,-0.000607407653636649
"15:52655712:C:T",-2.11433663155347e-05,2.7817163615218e-05,-0.00261516489972369,-0.0010833068313838,-0.000182301144777242,0.000271749593170334,1.65156242726283e-05,-0.00199054999362502,-0.00370763104198613,0.000124158790921314,-0.00250357725608374,-0.00290894009954279,3.88009087393115e-05,-8.01303759523364e-06,2.46138519592876e-05,3.79910840653253e-05,9.59432490788004e-07,9.59432490788004e-07,-0.00524626550566865,-0.00260094463227301,-0.00263319683339169,-9.81957176113823e-05,-3.56250954594017e-05,0.0730191926991077,-0.0030771727687986,5.41551758166392e-05,3.79910840653253e-05,-9.86052237266222e-05,-5.97159488071597e-05,4.89123470348574e-06,5.29684376076034e-05,-0.00179453104960459,4.10576083966774e-05,2.46138519601757e-05,-0.000563716790797031,1.54763663440249e-05,1.75648969786835e-05,-5.97159488071597e-05,2.89050804971325e-05,8.28404748212108e-05,-0.00434223890617158,-0.00344018494455423,1.24173278743811e-05,-0.00285052804999708,-8.01303759523364e-06,-0.00189842887159486,2.90625456322857e-06,-0.00255046233529477,3.20235513644462e-05,1.24173278743811e-05,-8.69951280160208e-05,-0.000117931495461576,-2.11433663155347e-05,-0.00255046233529477,1.34273512033545e-05,1.24173278743811e-05,-0.00407030848729928,-0.00095423995859889,-1.17277497375667e-05,1.24173278743811e-05,-0.00302704629020045,3.99240642607879e-05,0.00017359556264207,-1.7513331596497e-05,1.6515624270852e-05,-0.00308666346978992,-1.17277497375667e-05,-1.65823923419239e-05,1.24173278743811e-05,2.56716824020842e-05,1.75648969786835e-05,-0.00217144835865479,1.24173278743811e-05,-0.000806693617556142,-0.0014321223002387,3.46061142089127e-05,1.8624323292471e-05,1.24173278743811e-05,-0.000201744891834998,9.59432490788004e-07,-0.00407030848729928,1.24173278743811e-05,-5.20971170407947e-05,2.78171636143298e-05,-8.01303759523364e-06,6.9154646809011e-06,-0.00295340648026521,-4.62365872193615e-05,-1.65823923419239e-05,-1.08127263507285e-05,2.7817163615218e-05,-0.00255046233529477,1.8624323292471e-05,6.34173442985997e-05,1.24173278743811e-05,-7.32611015283879e-05,9.59432490788004e-07,4.22016757815058e-05,1.75648969786835e-05,8.64559772431051e-05,1.6515624270852e-05,2.46138519592876e-05
"15:52657512:C:T",-9.58788732594584e-05,-0.0016039424243397,-0.000107115656160062,-0.00037471278498824,-0.00074349936648499,-0.0030771727687986,-0.00220719764571076,-0.000610194792380447,-0.00250719923328102,-0.00209278484477426,-0.00211091399620145,-0.0003128449976737,-0.00070451219459855,-3.86268983021409e-05,0.000106142596292713,-0.00387216302083271,3.41716478313714e-06,-0.00364357593829023,-0.00166652500994768,-0.000269732984381932,-0.00228457502105073,-0.00256993424822394,-0.00076494534378746,-0.0030771727687986,0.114684589214659,-0.00266109575304085,-0.00387216302083271,-4.98646145370429e-05,-0.000268054673663087,1.74469367353325e-05,-0.00124136745172532,-0.000603033229070959,-0.000484577390623464,0.000106142596293601,-0.00240397963051819,-0.00197150966187198,-0.00203580888981669,-0.000268054673663087,-0.00034455792487087,-0.000184598074769227,0.000439918052617116,-0.00145612920155624,5.36460080713397e-05,-0.00280387254013359,-3.86268983021409e-05,-0.00120595399249845,1.03587216306877e-05,-0.00583046573787449,9.71735493333625e-05,5.36460080713397e-05,-0.000749234238492935,0.0008292262128613,-0.00350635693125767,-0.00583046573787449,5.73043154359354e-05,5.36460080713397e-05,-0.00223992075135726,-0.00100332707368711,-5.16109599884018e-05,5.36460080713397e-05,0.00125188320426428,-0.00133024358952749,-7.30229974124086e-05,-0.00265298405352699,-0.00280460851216002,0.00169307725342271,-5.16109599884018e-05,-0.00155312496470206,5.36460080713397e-05,-0.00113282865222963,-0.00203580888981669,0.000130044542393293,5.36460080713397e-05,-0.00469894724875664,-0.0032897848486968,-0.00191697767657661,7.61688199713006e-05,5.36460080713397e-05,-4.16331645398671e-05,3.41716478313714e-06,-0.00223992075135726,5.36460080713397e-05,-0.000159139559835708,0.000117912826347322,-3.86268983021409e-05,-0.00232651215035418,-2.15924109525645e-05,-0.000358668270731499,-0.00155312496470206,-4.84163463623233e-05,-0.0016039424243397,-0.00583046573787449,7.61688199713006e-05,0.00027001849031727,5.36460080713397e-05,-0.00162751328611321,3.41716478313714e-06,-0.00248817915909605,-0.00203580888981669,-4.8395316065708e-06,-0.00280460851216002,0.000106142596292713
"15:52658456:C:T",6.07851433231943e-05,-9.16247650355473e-05,0.00135616937601757,-0.00182225612056808,-0.00147179396536767,5.41551758166392e-05,-5.50329833375329e-05,-0.00259592753322924,0.000259401309064877,-0.000479115039303757,-0.000142402734487845,0.000142585735482648,-0.000128309736631138,2.14274506831202e-05,-7.89773546152617e-05,-0.00118178331251961,-3.61616806099363e-06,-3.61616806099363e-06,-0.00217473201585072,-2.26547084398732e-05,-9.83627863941905e-05,-0.00431002894804244,9.22379056289557e-05,5.41551758166392e-05,-0.00266109575304085,0.0520365286367888,-0.00118178331251961,-0.00125229961911977,0.000167660909986544,-0.000288522375999634,-0.000179672457292668,-0.00130283767190864,-0.000137490861873424,-7.89773546143735e-05,0.000193329154367206,-5.09988544594719e-05,-5.91183569866871e-05,0.000167660909986544,-9.59477284938615e-05,-0.000303669665664863,-0.000747389036590995,0.000214482280513018,-3.9194511509244e-05,-0.00246069632953816,2.14274506831202e-05,-0.00131523750366114,-1.09837022446158e-05,-0.00267444424601671,0.000696556250373348,-3.9194511509244e-05,-0.0045835603754929,-0.00265628716976174,6.07851433231943e-05,-0.00267444424601671,-4.30805378694998e-05,-3.9194511509244e-05,0.000299752514354878,-0.00304662933297095,3.5261682954868e-05,-3.9194511509244e-05,-0.00238867494383577,-0.000132871120567479,-0.00108623209920733,-0.000238470210382147,-5.50329833384211e-05,-0.00247537111804963,3.5261682954868e-05,4.3890894962928e-05,-3.9194511509244e-05,-8.31405758638937e-05,-5.91183569866871e-05,-0.000104760572971152,-3.9194511509244e-05,-0.000167791471815448,-0.000754853446029102,-0.000411609298460291,-6.32559537638855e-05,-3.9194511509244e-05,-0.00123558419162428,-3.61616806099363e-06,0.000299752514354878,-3.9194511509244e-05,0.000139968606773344,-9.16247650346591e-05,2.14274506831202e-05,-0.00126317982006263,3.12801883861624e-06,0.000118297321248129,4.3890894962928e-05,3.18669439520747e-05,-9.16247650328827e-05,-0.00267444424601671,-6.32559537638855e-05,-0.000217264915949755,-3.9194511509244e-05,0.000203066901450555,-3.61616806099363e-06,0.000114984090044956,-5.91183569866871e-05,-0.000313224249907762,-5.50329833384211e-05,-7.89773546152617e-05
"15:52664689:T:C",-0.00285198524926766,-0.00291074052903806,-0.00010427421286785,-0.000471866796718068,0.000257662840534856,3.79910840653253e-05,-3.83143424986798e-05,-0.00395429289843419,-0.00134884141899416,-0.00036116034347522,-0.00385909439302079,-0.00421980030711833,-9.13465128009605e-05,-0.00227210077524731,-5.58249798201516e-05,0.00232260004932971,-2.41860993455134e-06,-2.41860993455134e-06,-0.00853643989886566,-0.00382403567957557,-0.00406614604061062,0.000173535283154891,-0.00190416711750263,3.79910840653253e-05,-0.00387216302083271,-0.00118178331251961,0.106123252812785,-0.00217109678406135,-0.0037449390318649,-1.24384478628059e-05,-0.000129004638191432,-0.00364048962901586,-9.78608877222342e-05,-5.58249798201516e-05,0.000130399504951306,-0.00155749587777176,-0.00163396374239344,-0.0037449390318649,-6.76360618196981e-05,-0.000221576567685844,-0.000180854324310253,-0.00259528973427026,-2.74908600426116e-05,-0.0035668146951604,-0.00227210077524731,-0.00233500169298262,-0.00201884252203133,-0.00235163786294912,-5.87044198328002e-05,-2.74908600426116e-05,-2.84206937437581e-05,0.000149493680002166,4.22837452704883e-05,-0.00235163786294912,-3.01398369000339e-05,-2.74908600426116e-05,-0.00115696824655664,-0.000232072172965836,2.44629101997518e-05,-2.74908600426116e-05,-0.000164545662663329,-0.00240522132575371,-0.00173342821588385,3.35750849194127e-05,-3.8314342499568e-05,-0.00022421713828269,2.44629101997518e-05,-6.20598176048759e-06,-2.74908600426116e-05,-5.87150979480811e-05,-0.00163396374239344,-7.38011327294785e-05,-2.74908600426116e-05,0.000196963270085782,-0.000194113910620075,-0.00161672306633598,-4.39616973544332e-05,-2.74908600426116e-05,-1.86949861049612e-05,-2.41860993455134e-06,-0.00115696824655664,-2.74908600426116e-05,-0.0017406177510022,-0.00369535216121886,-0.00227210077524731,-1.76658425150578e-05,3.22507041783382e-06,-0.0019830037702997,-6.20598176048759e-06,2.22336970852055e-05,-0.0012724964962274,-0.00235163786294912,-4.39616973544332e-05,-0.000157237505263197,-2.74908600426116e-05,-0.00098115107008212,-2.41860993455134e-06,-0.00129484373268696,-0.00163396374239344,-0.000229660239556395,-3.8314342499568e-05,-5.58249798201516e-05
"15:52665598:T:A",-0.0032777189309785,-0.00313254643783356,-0.00351990630505128,-0.0012768307695139,-0.00120421740267762,-9.86052237266222e-05,5.48586087401048e-06,-0.00182779559835211,-0.00203624503198707,-0.000222639279528813,-0.00632376099420906,-9.12636939087719e-05,-0.000178373964148548,-0.0040379426832482,7.06740921341265e-06,-0.00217109678406135,4.04130425124549e-07,4.04130424236371e-07,-0.00358087957286557,2.05211199144628e-07,-0.000471211403255012,-9.03267456928702e-05,-0.00260007970770904,-9.86052237266222e-05,-4.98646145370429e-05,-0.00125229961911977,-0.00217109678406135,0.101484161448174,-0.000978209270030561,1.96225526760685e-06,-0.000387278452147477,-0.00178582662933158,0.000561850231100891,7.06740921252447e-06,-0.00103177128118492,5.21841088829689e-06,-0.00531533627230996,-0.000978209270030561,0.00159563361166715,-9.40661246318086e-06,-0.00388330876438658,-3.91282956893058e-05,4.36084850985452e-06,-0.000557987581654373,-0.0040379426832482,-0.00245389768260962,-0.00222299755331878,-0.000537405899579291,-5.24040929210656e-05,4.36084850985452e-06,-0.000560281350000746,-8.66623369857322e-05,-1.07750139202167e-05,-0.000537405899579291,-0.00145722689325467,4.36084850985452e-06,-0.00263315433418665,-0.00154003262421476,-5.49206103439559e-06,4.36084850985452e-06,-0.00134978321961654,8.06238656991809e-06,-0.00143880011497632,-8.56744538246801e-06,0.00172658976026696,-0.000127850229510784,-5.49206103439559e-06,-8.01998142918592e-06,4.36084850985452e-06,7.23024952975493e-06,-0.00531533627230996,-0.00162035439200636,4.36084850985452e-06,-0.000866815784185349,-0.000929739923272166,-0.00173407269255854,5.99061125239331e-06,4.36084850985452e-06,-0.00132726493063462,4.04130425124549e-07,-0.00263315433418665,4.36084850985452e-06,-0.00311039368655042,7.51865694859077e-06,-0.0040379426832482,-0.00204513075735058,-3.93722731093504e-05,-0.0011901035413322,-8.01998142918592e-06,-5.00300768635498e-06,7.51865695036713e-06,-0.000537405899579291,5.99061125239331e-06,3.74097391109274e-06,4.36084850985452e-06,-0.00105202983149422,4.04130425124549e-07,-0.001396058224028,-0.00531533627230996,-0.000298319918551115,0.00172658976026696,7.06740921341265e-06
"15:52666187:G:T",-6.43295265687627e-05,-0.0124012590122691,0.000103122616824436,-0.00157956744814491,-0.000569790394218117,-5.97159488071597e-05,4.89709919335723e-05,0.000152922329255567,-0.000572461662801338,0.00040827529748011,-0.00398366853057119,-0.0044549575052315,0.000119230186765407,-2.55490999716557e-05,7.5256310442029e-05,-0.0037449390318649,2.58012551945797e-06,2.58012551945797e-06,0.000283289493096639,-0.00403508933478314,-0.00363247035315428,-0.000285225636913466,-0.000111746285083925,-5.97159488071597e-05,-0.000268054673663087,0.000167660909986544,-0.0037449390318649,-0.000978209270030561,0.0894584398578111,1.31881037317427e-05,0.000164117687074139,7.89095789315297e-05,0.000125786061535571,7.52563104429171e-05,-0.000492500593597178,4.60940729460901e-05,5.18799362376754e-05,0.00281163344905,8.74030730084741e-05,0.000259016352862851,-0.0028464706300273,-0.00145415075777588,3.76502734749096e-05,-0.000356422863218242,-2.55490999716557e-05,-0.000284878474032801,7.8256703526236e-06,3.58883832616286e-05,-0.00762517430393217,3.76502734749096e-05,-0.00061858891416211,-0.00468661864616404,-6.43295265687627e-05,3.58883832616286e-05,4.0434221880048e-05,3.76502734749096e-05,-0.000448820449214793,3.92293897704121e-05,-3.53168015703176e-05,3.76502734749096e-05,-0.00498624027486461,-0.00619802533581382,-0.00298616752867975,-5.49970715857384e-05,4.89709919326842e-05,-0.00488139557897505,-3.53168015703176e-05,-5.25970137035259e-05,3.76502734749096e-05,7.82434420667499e-05,5.18799362376754e-05,-0.00152044012151364,3.76502734749096e-05,-0.0017710803160762,0.000240617481729544,-0.00273216666209475,5.48214426769889e-05,3.76502734749096e-05,-0.000993848574637468,2.58012551945797e-06,-0.000448820449214793,3.76502734749096e-05,-0.000158036043909959,-0.00460571892748263,-2.55490999716557e-05,1.86713710874642e-05,-0.00080197488826439,-0.0044221703750118,-5.25970137035259e-05,-3.29150468694195e-05,8.4316279298946e-05,3.58883832616286e-05,5.48214426769889e-05,0.000198683706923219,3.76502734749096e-05,-0.000214055922326928,2.58012551945797e-06,0.000129118624766278,5.18799362376754e-05,0.000273590828689052,4.89709919326842e-05,7.5256310442029e-05
"15:52668247:T:C",5.35469331097715e-06,-8.63561512787214e-06,-1.15594560821108e-05,-0.00217645372638486,-0.000558836378773186,4.89123470348574e-06,-0.00180595192219624,-3.03643174976997e-05,1.86094100778078e-05,-5.60716733186695e-05,-1.337091003073e-05,-0.00505678300198831,-1.25011515796913e-05,2.07544683039629e-06,-7.49601251381904e-06,-1.24384478628059e-05,-0.00413845286131309,-2.85601567284743e-07,-0.000438295864180205,-0.00456581772428333,-8.77092492945764e-06,1.8687554648622e-05,8.35474226779098e-06,4.89123470348574e-06,1.74469367353325e-05,-0.000288522375999634,-1.24384478628059e-05,1.96225526760685e-06,1.31881037317427e-05,0.0705321137620549,-1.80281564778895e-05,-3.19689296848225e-05,-1.33831130524342e-05,-7.49601251381904e-06,1.49152474779868e-05,-4.61503013227116e-06,-5.31148930882352e-06,1.31881037317427e-05,-9.02882311937248e-06,-3.1962356484172e-05,-0.00598430916427262,2.07083655947571e-05,-3.61447029373352e-06,-0.0017269516355114,2.07544683039629e-06,-6.59575080064201e-06,-0.00249009039107939,-4.13137444166267e-06,-0.000321055313417418,-3.61447029373352e-06,-0.000370028062066652,-0.000901640624698885,5.35469331097715e-06,-4.13137444166267e-06,-0.00560765269845298,-3.61447029373352e-06,2.0399872131982e-05,-0.000368249894017403,3.10528250935249e-06,-3.61447029373352e-06,-0.0010506819611722,-1.2938289682296e-05,-0.00448350613408444,-0.000983630277613834,-4.96022646689909e-06,-0.00520456377835021,3.10528250935249e-06,-0.00240568478229619,-3.61447029373352e-06,-7.8693623493109e-06,-5.31148930882352e-06,-9.83619880923214e-06,-3.61447029373352e-06,1.82118075766624e-05,-2.82112868328355e-05,-0.000401998668247749,-5.66896171161346e-06,-3.61447029373352e-06,-1.50395526699043e-06,-0.00413845286131309,2.0399872131982e-05,-3.61447029373352e-06,1.1674626026803e-05,-8.63561512787214e-06,2.07544683039629e-06,-2.10656857291269e-06,6.82807510088423e-07,-0.00507876029646592,-0.00240568478229619,2.85442108349798e-06,-8.63561512698396e-06,-4.13137444166267e-06,-5.66896171161346e-06,-2.24098803576211e-05,-3.61447029373352e-06,1.53833604183973e-05,-0.00413845286131309,-0.00316881868152485,-5.31148930882352e-06,-3.36125711628554e-05,-4.96022646689909e-06,-7.49601251381904e-06
"15:52670362:G:A",-0.00289866123249549,-8.9263729778466e-05,-0.00130723475627992,-0.00358756568668372,0.00027826435205025,5.29684376076034e-05,-5.36171468663582e-05,-0.000157097488494351,0.000254323950048985,-0.000972777158137816,-0.000138485926449938,-0.000277666063797533,-0.00023165142640913,-0.00329443490350201,-7.69895588472735e-05,-0.000129004638191432,-3.51791426389525e-06,-3.51791426389525e-06,-0.00190170941693779,-0.000412626295236862,-9.56651052668178e-05,0.000256378821124059,-0.000338828106756672,5.29684376076034e-05,-0.00124136745172532,-0.000179672457292668,-0.000129004638191432,-0.000387278452147477,0.000164117687074139,-1.80281564778895e-05,0.0453312530047967,-0.000150275891489748,-0.000269551950725422,-7.69895588472735e-05,0.000189349847585341,-4.96988460998438e-05,-0.000956346383629736,0.000164117687074139,-0.000394794589372971,-0.00114938095167538,-6.33168458694655e-05,-0.00150286450107728,-3.82299555399257e-05,-0.00132137035328839,-0.00329443490350201,-0.000325154562171193,-1.06837027837869e-05,-4.93328268715842e-05,-0.00217203788096754,-3.82299555399257e-05,-0.00186199818005406,8.72039680333003e-05,-0.00213978979203233,-4.93328268715842e-05,-4.20061229453594e-05,-3.82299555399257e-05,0.000294044762785717,-6.76665953367461e-05,3.44421869211686e-05,-3.82299555399257e-05,8.31204537963259e-05,-0.000129386941643439,-0.00118230067486813,4.63457092596542e-05,-0.000576007772678189,9.43999432347908e-05,3.44421869211686e-05,4.29712896377055e-05,-3.82299555399257e-05,-8.10305529697075e-05,-0.000956346383629736,-0.000102005825584506,-3.82299555399257e-05,-0.00110538594798015,-0.000258565060557103,-0.000123687346869517,-6.16021535861933e-05,-3.82299555399257e-05,-0.000420868936371832,-3.51791426389525e-06,0.000294044762785717,-3.82299555399257e-05,-0.00148787066632128,-8.9263729778466e-05,-0.00329443490350201,-2.55580215533513e-05,3.16875810213446e-06,-0.000301328171960158,4.29712896377055e-05,3.11363763598749e-05,-8.92637297775778e-05,-4.93328268715842e-05,-6.16021535861933e-05,-0.000211343584025414,-3.82299555399257e-05,0.000198877613260429,-3.51791426389525e-06,-0.000138397750331087,-0.000956346383629736,-0.00145218635761069,-0.000576007772678189,-7.69895588472735e-05
"15:52672745:C:T",-0.000338278966347971,-0.0150500748456359,-0.00108593686708813,-0.00223194625389445,-0.000920216170375632,-0.00179453104960459,-0.000345864876241109,-0.00313314078600246,-0.00200243227219454,-0.00535495013026299,-0.00407133574848251,-0.000955824690370921,-0.000952622477837117,-0.00155179106367864,-0.000130065302323956,-0.00364048962901586,-0.00372570119878102,-0.00407360462626194,-0.00323887853400429,-0.00229691007207,-0.00533886873470069,-0.00157562171988657,-0.00333182918592101,-0.00179453104960459,-0.000603033229070959,-0.00130283767190864,-0.00364048962901586,-0.00178582662933158,7.89095789315297e-05,-3.19689296848225e-05,-0.000150275891489748,0.208293405194043,-1.39716522520317e-05,-0.000130065302323956,-0.00107125609150005,-0.00646113395512771,-0.00091187426857875,7.89095789315297e-05,6.75570032502293e-05,-0.00689455275790252,-0.00329551147710738,-0.00367573484519035,-0.00016811020720997,-0.00161685101876863,-0.00155179106367864,-0.00270188182137865,-0.00510217322357054,-0.00015901088254644,-0.0087936933082946,2.95360279309875e-05,-0.0068806342187564,-0.00335716551710163,-0.000560161325197761,-0.00015901088254644,-0.00517101412285115,2.95360279309875e-05,-0.00159229983502041,-0.00575321100108628,-3.61694584913863e-05,-0.00016811020720997,-0.00401702966459938,-0.00818324498803769,-0.00432568546122836,-1.15620521770055e-05,-1.00846987960423e-05,-0.00321482295805042,-3.61694584913863e-05,-0.000461978490481574,2.95360279309875e-05,-0.0023509818739571,-0.00091187426857875,-0.0045016592822229,-0.00016811020720997,-0.0045808244304828,-0.00161735783302852,-0.0002739035471504,-4.82225783660084e-06,2.95360279309875e-05,-3.84214180013664e-05,-0.00372570119878102,-0.00159229983502041,-0.00016811020720997,-0.000187866776775181,-0.00650623643450743,-0.00155179106367864,-0.00190696301554283,-0.0014170128647284,-0.000671049206545593,-0.000461978490481574,-0.00151324005163644,-0.00249466441608615,-0.00015901088254644,-4.82225783660084e-06,-0.000928787255102925,2.95360279309875e-05,1.89656016642559e-05,-0.00372570119878102,-0.00229899874080264,-0.00091187426857875,-0.000935369365603567,-1.00846987960423e-05,-0.000130065302323956
"15:52677771:A:T",-0.00331799292971002,-6.81606334760332e-05,-0.000107154737597703,-0.0026542259869311,-0.000549593054489428,4.10576083966774e-05,-4.07309218344309e-05,-7.10720885539473e-05,0.000195018171016414,-0.000742527207481025,-0.000104950977468654,-0.000532870455406176,0.00222812281466123,-0.0037046578560096,-5.89935121428908e-05,-9.78608877222342e-05,-2.61102580534356e-06,-2.61102580534356e-06,-0.00103406294994901,-0.00063012428395659,-7.20655337511644e-05,0.00019648423223817,-0.00058335664876541,4.10576083966774e-05,-0.000484577390623464,-0.000137490861873424,-9.78608877222342e-05,0.000561850231100891,0.000125786061535571,-1.33831130524342e-05,-0.000269551950725422,-1.39716522520317e-05,0.036246302661616,-5.89935121428908e-05,0.000145362656750692,-3.78126299649395e-05,-4.36861197412597e-05,0.000125786061535571,0.00257262136919412,-0.000956805993457266,-0.00120547414024852,-0.00177082562585174,-2.92724335588801e-05,-0.000331828094212838,-0.0037046578560096,-0.000191100656318,-7.93025695156047e-06,-0.000995488956513135,-0.00037976384009486,-2.92724335588801e-05,0.000209525899119711,-0.000686473556127609,4.58202421169673e-05,-0.000995488956513135,-3.20840449958837e-05,-2.92724335588801e-05,0.000224944866773491,0.000577687497601787,2.64147541377824e-05,-2.92724335588801e-05,-0.0035030541412695,-9.89816368361929e-05,-0.000892468237380761,3.61740166683333e-05,0.000507135535900538,-0.000719171197304469,2.64147541377824e-05,3.3685417434981e-05,-2.92724335588801e-05,-6.20112664702077e-05,-4.36861197412597e-05,-7.76802198920734e-05,-2.92724335588801e-05,-0.00115587255043348,-0.000198412273883619,-9.29658690598245e-05,-0.000839978300842148,-2.92724335588801e-05,0.000709463491594065,-2.61102580534356e-06,0.000224944866773491,-2.92724335588801e-05,-0.000590831338185716,-6.81606334760332e-05,-0.0037046578560096,-1.89746716277028e-05,3.27225067398018e-06,-0.00055144971737775,3.3685417434981e-05,2.39692960644078e-05,-6.8160633475145e-05,-0.000995488956513135,-0.000839978300842148,-0.000162072879784425,-2.92724335588801e-05,-0.00314741957022235,-2.61102580534356e-06,-0.000105732265950564,-4.36861197412597e-05,-0.000570288284423626,0.000507135535900538,-5.89935121428908e-05
"15:52679658:T:C",2.72986605054371e-05,-3.94218642831845e-05,-5.75539755232057e-05,-0.000209849221338487,8.67758031919408e-06,2.46138519601757e-05,-2.3481808076653e-05,-0.000140509693127733,-0.00201434551881174,-0.000199948533835759,-5.9721728648654e-05,6.71166689567571e-05,-5.53164421317476e-05,9.97833832716566e-06,0.00411628874259584,-5.58249798201516e-05,-1.46471590767305e-06,-1.46471590767305e-06,-0.000121862618494006,-6.18768781723844e-06,-4.08536105327428e-05,0.000118832072187658,-0.000607407653636649,2.46138519601757e-05,0.000106142596293601,-7.89773546143735e-05,-5.58249798201516e-05,7.06740921252447e-06,7.52563104429171e-05,-7.49601251381904e-06,-7.69895588472735e-05,-0.000130065302323956,-5.89935121428908e-05,-0.0239738227206852,8.74073745364967e-05,-2.18562957279289e-05,-2.51265429946912e-05,7.52563104429171e-05,-4.11583411628058e-05,-0.000127139951645816,-0.000303904713726766,-0.000115289336367397,0.00205388993281996,0.000141398453116892,9.97833832716566e-06,6.56548766997389e-06,-4.44527560539143e-06,6.60406485364362e-05,-0.000210662985906218,0.00205388993281996,-0.000101146360097282,0.000139824868262473,2.72986605054371e-05,6.60406485364362e-05,-1.8661606065784e-05,0.00205388993281996,0.000136360836129334,-0.000466267903158624,1.5583353294879e-05,0.00205388993281996,0.000210660469942781,-5.71441367247516e-05,-0.00030808900485102,2.18648926111342e-05,-2.3481808076653e-05,0.000188770228371382,1.5583353294879e-05,2.0465633446598e-05,0.00205388993281996,-3.60093574531817e-05,-2.51265429946912e-05,-4.46935481548394e-05,0.00205388993281996,-6.86891994821082e-05,0.00102653546147646,-5.23587711978024e-05,-2.67908435613862e-05,0.00205388993281996,-9.72756969019883e-06,-1.46471590767305e-06,0.000136360836129334,0.00205388993281996,6.40867617596186e-05,-3.94218642831845e-05,9.97833832716566e-06,-1.06194351436883e-05,2.59140218705767e-06,5.54031592052695e-05,2.0465633446598e-05,1.42063080241783e-05,0.000616244917368114,6.60406485364362e-05,-2.67908435613862e-05,-9.30676251540419e-05,0.00205388993281996,9.13343767487973e-05,-1.46471590767305e-06,-6.0864956571649e-05,-2.51265429946912e-05,-0.000132074809884308,-2.3481808076653e-05,0.00411628874259584
"15:52687543:T:C",-7.5784088744868e-05,-0.00238263503046987,-0.000180720892704933,-0.00440072214007703,-0.000721600400436451,-0.000563716790797031,5.6614955167511e-05,-0.00116718612528599,-0.00442785413568547,0.000463906780051815,-0.00840396685406297,-0.00727535686717751,0.00013797964353035,-3.03151406404467e-05,8.74073745356085e-05,0.000130399504951306,2.91881131619931e-06,2.91881131619931e-06,-0.00409850981673943,-0.00656760106445464,-0.000203614440573929,-0.000339824809092448,-0.000133403693884482,-0.000563716790797031,-0.00240397963051819,0.000193329154367206,0.000130399504951306,-0.00103177128118492,-0.000492500593597178,1.49152474779868e-05,0.000189349847585341,-0.00107125609150005,0.000145362656750692,8.74073745364967e-05,0.0911405851574711,5.33644668871958e-05,-0.00170094291952871,-0.000492500593597178,0.000101115591326639,0.000296343483568329,-0.00798652928740484,-0.00121974026841087,4.38211353674944e-05,-0.00224948957712545,-3.03151406404467e-05,-0.00194627088029797,8.8517465375304e-06,-0.00300123761888393,4.58682147712608e-05,4.38211353674944e-05,-0.000568515993417229,-0.000373085103621662,-7.5784088744868e-05,-0.00300123761888393,4.69681125823129e-05,4.38211353674944e-05,-0.00482578469096229,-0.00155463022443181,-4.13627264936878e-05,4.38211353674944e-05,-0.000370300023053716,0.000141651291230893,0.000674665549479592,-6.52403474852292e-05,5.66149551666228e-05,-0.000377622036388026,-4.13627264936878e-05,-6.2529371976261e-05,4.38211353674944e-05,9.07794792173178e-05,-0.00170094291952871,-0.0025710580611058,4.38211353674944e-05,-0.000292670106597726,-0.00170789308132324,0.000113900654719501,6.32234228348239e-05,4.38211353674944e-05,-0.00226162079571957,2.91881131619931e-06,-0.00482578469096229,4.38211353674944e-05,-0.000187996546414659,9.76329974786694e-05,-3.03151406404467e-05,2.11136541539148e-05,-0.000346576747784155,-0.000489757744272623,-6.2529371976261e-05,-3.86458239631793e-05,9.76329974795576e-05,-0.00300123761888393,6.32234228348239e-05,0.000228912280184623,4.38211353674944e-05,-0.000253516787988239,2.91881131619931e-06,0.000149114383168225,-0.00170094291952871,0.000313284574683159,5.66149551666228e-05,8.74073745356085e-05
"15:52688898:G:C",1.70845784310814e-05,-2.50790646072474e-05,-0.00177403283453348,-0.000177541969834216,4.67685899137038e-05,1.54763663440249e-05,-1.48014111820416e-05,-0.00621450656154288,-0.00200695920546945,-0.000134599482001896,-0.00166949534107186,4.18716730274937e-05,-3.54461511440363e-05,6.35576771124136e-06,-2.18562957279289e-05,-0.00155749587777176,-8.99621857897159e-07,-8.99621857897159e-07,-0.00159610798866616,-3.22772293248619e-06,-0.00177393202902287,7.1614480033233e-05,-0.00249669330136637,1.54763663440249e-05,-0.00197150966187198,-5.09988544594719e-05,-0.00155749587777176,5.21841088829689e-06,4.60940729460901e-05,-4.61503013227116e-06,-4.96988460998438e-05,-0.00646113395512771,-3.78126299649395e-05,-2.18562957279289e-05,5.33644668871958e-05,0.0646577791873284,-1.58317910168293e-05,4.60940729460901e-05,-2.61815351336736e-05,-8.32783114494973e-05,-0.000211329351897938,-0.0066666774242643,-1.08106461826907e-05,-0.00210636585417134,6.35576771124136e-06,-0.00167751111641223,-2.73349665125266e-06,-1.26564712905619e-05,0.000288602829901841,-1.08106461826907e-05,-0.000283351878335836,-0.0018588067716685,1.70845784310814e-05,-1.26564712905619e-05,-1.17892195010683e-05,-1.08106461826907e-05,-0.00182979529301797,-0.000367885254962452,9.75585167406479e-06,-1.08106461826907e-05,-0.00195264535904016,-3.66216099534356e-05,-0.00370430396043453,1.38260418767189e-05,-1.48014111829298e-05,-0.00191602974334959,9.75585167406479e-06,-0.00203446102840843,-1.08106461826907e-05,-2.29167140259889e-05,-1.58317910168293e-05,-2.84304647291123e-05,-1.08106461826907e-05,3.81090473311474e-06,-7.42536785240944e-05,-0.00312875590954853,-1.68757574883216e-05,-1.08106461826907e-05,-5.40711180185838e-06,-8.99621857897159e-07,-0.00182979529301797,-1.08106461826907e-05,-0.00235273897509103,-2.50790646081356e-05,6.35576771124136e-06,-6.54608342820495e-06,1.85122446705321e-06,3.46851618200361e-05,-0.00203446102840843,8.92194438861793e-06,-0.00108684031315498,-1.26564712905619e-05,-1.68757574883216e-05,-6.04665969401452e-05,-1.08106461826907e-05,5.55646867175241e-05,-8.99621857897159e-07,-3.90195178852082e-05,-1.58317910168293e-05,-8.68245729925832e-05,-1.48014111829298e-05,-2.18562957279289e-05
"15:52693878:G:A",1.93957690086677e-05,-2.88783458888275e-05,-0.00185069075608979,-0.00311423437571356,-0.000702670020426233,1.75648969786835e-05,-0.00307062291421278,-0.00106689360260681,7.93796572828853e-05,-0.000159062282344635,-4.40582051162153e-05,-0.00491542411327828,-4.09125606770644e-05,7.22006821263221e-06,-2.51265429946912e-05,-0.00163396374239344,-1.03411766527728e-06,-1.03411766527728e-06,-7.17300900374696e-05,-0.0054339846029654,-2.97430010949284e-05,7.98717431607088e-05,-0.00204685091208567,1.75648969786835e-05,-0.00203580888981669,-5.91183569866871e-05,-0.00163396374239344,-0.00531533627230996,5.18799362376754e-05,-5.31148930882352e-06,-0.000956346383629736,-0.00091187426857875,-4.36861197412597e-05,-2.51265429946912e-05,-0.00170094291952871,-1.58317910168293e-05,0.0944343810333272,5.18799362376754e-05,-3.01634273185414e-05,-9.74151534069989e-05,-0.00691858565925418,-0.0150371711117634,-1.23904191751123e-05,-0.00216921441202178,7.22006821263221e-06,-0.0012950872827453,-3.14406621626517e-06,-0.00173710701298102,-0.0030000818069178,-1.23904191751123e-05,-2.30724383909475e-05,-0.000817675757062375,1.93957690086677e-05,-0.00173710701298102,-1.35221820904974e-05,-1.23904191751123e-05,9.05901219310223e-05,4.24652606678677e-06,1.1109647894969e-05,-1.23904191751123e-05,-0.000682752405717579,-4.22897651528586e-05,-0.00025761275446623,1.56838552287653e-05,-1.70102532974781e-05,-0.000728141631181067,1.1109647894969e-05,1.47238832095553e-05,-1.23904191751123e-05,-2.63602453181022e-05,0.000278555526387336,-3.27874291849994e-05,-1.23904191751123e-05,-0.00194069735746183,-8.65347344776168e-05,-3.83149960683227e-05,-0.001575678316728,-1.23904191751123e-05,-0.00543999708836207,-1.03411766527728e-06,9.05901219310223e-05,-1.23904191751123e-05,-0.00222009633931108,-2.88783458897157e-05,7.22006821263221e-06,-7.53871917336113e-06,2.05297221445022e-06,-0.00495662444984024,1.47238832095553e-05,1.0156538506223e-05,-2.88783458888275e-05,-0.00173710701298102,-0.001575678316728,-7.02319668217655e-05,-1.23904191751123e-05,-0.0039998674159456,-1.03411766527728e-06,-4.51020168306115e-05,0.000278555526387336,-0.000101564979983593,-1.70102532974781e-05,-2.51265429946912e-05
"15:52695021:G:A",-6.43295265687627e-05,-0.0124012590122691,0.000103122616824436,-0.00157956744814491,-0.000569790394218117,-5.97159488071597e-05,4.89709919335723e-05,0.000152922329255567,-0.000572461662801338,0.00040827529748011,-0.00398366853057119,-0.0044549575052315,0.000119230186765407,-2.55490999716557e-05,7.5256310442029e-05,-0.0037449390318649,2.58012551945797e-06,2.58012551945797e-06,0.000283289493096639,-0.00403508933478314,-0.00363247035315428,-0.000285225636913466,-0.000111746285083925,-5.97159488071597e-05,-0.000268054673663087,0.000167660909986544,-0.0037449390318649,-0.000978209270030561,0.00281163344905,1.31881037317427e-05,0.000164117687074139,7.89095789315297e-05,0.000125786061535571,7.52563104429171e-05,-0.000492500593597178,4.60940729460901e-05,5.18799362376754e-05,0.0894584398578111,8.74030730084741e-05,0.000259016352862851,-0.0028464706300273,-0.00145415075777588,3.76502734749096e-05,-0.000356422863218242,-2.55490999716557e-05,-0.000284878474032801,7.8256703526236e-06,3.58883832616286e-05,-0.00762517430393217,3.76502734749096e-05,-0.00061858891416211,-0.00468661864616404,-6.43295265687627e-05,3.58883832616286e-05,4.0434221880048e-05,3.76502734749096e-05,-0.000448820449214793,3.92293897704121e-05,-3.53168015703176e-05,3.76502734749096e-05,-0.00498624027486461,-0.00619802533581382,-0.00298616752867975,-5.49970715857384e-05,4.89709919326842e-05,-0.00488139557897505,-3.53168015703176e-05,-5.25970137035259e-05,3.76502734749096e-05,7.82434420667499e-05,5.18799362376754e-05,-0.00152044012151364,3.76502734749096e-05,-0.0017710803160762,0.000240617481729544,-0.00273216666209475,5.48214426769889e-05,3.76502734749096e-05,-0.000993848574637468,2.58012551945797e-06,-0.000448820449214793,3.76502734749096e-05,-0.000158036043909959,-0.00460571892748263,-2.55490999716557e-05,1.86713710874642e-05,-0.00080197488826439,-0.0044221703750118,-5.25970137035259e-05,-3.29150468694195e-05,8.4316279298946e-05,3.58883832616286e-05,5.48214426769889e-05,0.000198683706923219,3.76502734749096e-05,-0.000214055922326928,2.58012551945797e-06,0.000129118624766278,5.18799362376754e-05,0.000273590828689052,4.89709919326842e-05,7.5256310442029e-05
"15:52695129:A:G",-0.00301341478023076,-4.73967683420895e-05,-7.25320555474696e-05,-0.00147038767596719,-0.000331317244833151,2.89050804971325e-05,-2.81597606308637e-05,6.52566625580775e-05,0.00013532359927293,-0.000803615774692901,-7.24737569539613e-05,-0.00323449626573868,0.00182914610750551,-0.00339105373665216,-4.11583411628058e-05,-6.76360618196981e-05,-1.76080958969038e-06,-1.76080958969038e-06,0.000167297636419761,-0.00354821647930681,-4.94265156820717e-05,0.000136261985225872,-0.000411836688402722,2.89050804971325e-05,-0.00034455792487087,-9.59477284938615e-05,-6.76360618196981e-05,0.00159563361166715,8.74030730084741e-05,-9.02882311937248e-06,-0.000394794589372971,6.75570032502293e-05,0.00257262136919412,-4.11583411628058e-05,0.000101115591326639,-2.61815351336736e-05,-3.01634273185414e-05,8.74030730084741e-05,0.0386775390469012,-0.0010553740248449,-0.00454919605954895,-0.000875984839188604,-2.03947845598407e-05,-0.000381285616010807,-0.00339105373665216,-2.32120041667727e-05,-5.34901708793001e-06,-0.00114945664423693,-0.000265801516388997,-2.03947845598407e-05,0.00017132639011308,-0.00114513906344271,3.20880103990007e-05,-0.00114945664423693,-2.22995075365162e-05,-2.03947845598407e-05,0.000155604264214126,0.00040848920631209,1.84103887521658e-05,-2.03947845598407e-05,-0.00312531250131887,-6.90008915347207e-05,-0.000895934859667769,2.56401306470977e-05,0.00156567454953738,-0.0011148951396196,1.84103887521658e-05,2.39759069016188e-05,-2.03947845598407e-05,-4.32115395199162e-05,-3.01634273185414e-05,-5.38793422784067e-05,-2.03947845598407e-05,-0.00149933357064036,-0.000139013150777245,-6.36373982727534e-05,-3.21930254063574e-05,-2.03947845598407e-05,0.00175166572681995,-1.76080958969038e-06,0.000155604264214126,-2.03947845598407e-05,-0.00043035411677117,-4.73967683420895e-05,-0.00339105373665216,-1.28037555171545e-05,2.86402747029513e-06,-0.00325833252729257,2.39759069016188e-05,1.67688787575671e-05,-4.73967683420895e-05,-0.00114945664423693,-3.21930254063574e-05,-0.00011340114608327,-2.03947845598407e-05,-0.00335917612784087,-1.76080958969038e-06,-7.36164048822374e-05,-3.01634273185414e-05,-0.000666668563464867,0.00156567454953738,-4.11583411628058e-05
"15:52695919:T:A",-0.00169738597771296,-0.000149234994712089,-0.00437236324717283,-0.00106867547065947,0.000396584265793809,8.28404748212108e-05,-0.00156006595952807,-0.00736711177918314,0.00039432107887194,-0.00301030709827188,-0.00118999054243218,-0.000424697092641146,-0.00020876555681415,-0.00211775042962969,-0.000127139951646704,-0.000221576567685844,-6.2155953921561e-06,-0.00246367003407322,-0.00424206743109901,-0.000895304081786286,-0.000997164086666835,-0.00311475873400013,-0.00189978361713372,8.28404748212108e-05,-0.000184598074769227,-0.000303669665664863,-0.000221576567685844,-9.40661246318086e-06,0.000259016352862851,-3.1962356484172e-05,-0.00114938095167538,-0.00689455275790252,-0.000956805993457266,-0.000127139951645816,0.000296343483568329,-8.32783114494973e-05,-9.74151534069989e-05,0.000259016352862851,-0.0010553740248449,0.110458018380013,-0.00134625013336631,-0.000803836591869889,-6.28073825401643e-05,-0.000310867446687624,-0.00211775042962969,-0.00666280165822553,-0.00261084952503321,-8.42187539857875e-05,-0.000896045248851784,-6.28073825401643e-05,-0.00237802446588598,0.000307421965857202,9.41657570132648e-05,-8.42187539857875e-05,-6.95358020150749e-05,-6.28073825401643e-05,0.00045472513896172,-0.00234751995412763,5.55854371642184e-05,-6.28073825401643e-05,0.000126689088189913,-0.000216806260651126,-0.00649476318197095,-0.00213575422997714,-0.00121096408617039,0.000137979277620381,5.55854371642184e-05,-0.00200752598147957,-6.28073825401643e-05,-0.000134401330763367,-9.74151534069989e-05,-0.00643467511697882,-6.28073825401643e-05,-0.00137737623386602,-0.00106034877003403,-0.0012570526369764,-0.000120152666247542,-6.28073825401643e-05,-0.0003054542225982,-6.2155953921561e-06,0.00045472513896172,-6.28073825401643e-05,-0.00201389530885976,-0.000149234994712089,-0.00211775042962969,-4.25072094696333e-05,-0.00441270653561077,0.000150094456071059,-0.00200752598147957,-0.00498592071220649,-0.000149234994710312,-8.42187539857875e-05,-0.000120152666247542,-0.00116050485666541,-6.28073825401643e-05,-0.000862594362470048,-6.2155953921561e-06,-0.000233239589722878,-9.74151534069989e-05,-0.00289945203550257,-0.00121096408617039,-0.000127139951646704
"15:52696068:T:C",-0.00349835018012534,-0.000369211636952471,-0.00055935939129359,-0.00488969565383979,-0.00783194868728065,-0.00434223890617158,-0.00295591741846479,-0.00199023641746354,4.90689709016223e-05,-0.00136790897331185,-0.00359539837894918,-0.0161968347288477,-0.000507132703871704,-0.00102265634036858,-0.000303904713727654,-0.000180854324310253,-1.87170491789956e-05,-1.87170491789956e-05,-0.00332194855169021,-0.00956218411127807,-0.000493719454551567,0.000157421819626968,0.000172830688493164,-0.00434223890617158,0.000439918052617116,-0.000747389036590995,-0.000180854324310253,-0.00388330876438658,-0.0028464706300273,-0.00598430916427262,-6.33168458694655e-05,-0.00329551147710738,-0.00120547414024852,-0.000303904713726766,-0.00798652928740484,-0.000211329351897938,-0.00691858565925418,-0.0028464706300273,-0.00454919605954895,-0.00134625013336631,0.257272335533464,-0.00235639910241048,-0.000150247180832785,0.00046090619199024,-0.00102265634036858,-0.00342858753453346,-5.70082534760985e-05,-0.00588216902499195,-0.00459626397526147,-0.000150247180832785,-0.00335870733589694,-0.00757550037500021,-0.00146123205780135,-0.00588216902499195,-0.00017029942159752,-0.000150247180832785,2.84379783215272e-05,-0.0012311648218577,0.000129468080019457,-0.000150247180832785,-0.00961246171041541,-0.000530721649520949,-0.00275047689286279,-0.00575206580200138,-0.00403062554759259,-0.00934510817169265,0.000129468080019457,-0.00602097423119297,-0.000150247180832785,-0.000325341338123231,-0.00691858565925418,-0.00142086831712085,-0.000150247180832785,-1.60914389613076e-05,-0.00560806789108348,-0.00469064843256728,-0.00197170310009209,-0.000150247180832785,-0.00395243970391412,-1.87170491789956e-05,2.84379783215272e-05,-0.000150247180832785,0.000322251690796804,-0.000369211636951583,-0.00102265634036858,-0.000170589640529961,-0.00177696807301597,-0.0117606607531604,-0.00602097423119297,0.000111776314979828,-0.000369211636951583,-0.00588216902499195,-0.00197170310009209,-0.00146164534498272,-0.000150247180832785,-0.000779351653433125,-1.87170491789956e-05,-0.000579021953051928,-0.00691858565925418,-0.00478897239475096,-0.00403062554759259,-0.000303904713727654
"15:52696097:G:A",-0.0016347167002575,-0.0160844717248043,-0.00176940508315315,-0.00426007573208143,-0.00323160727614402,-0.00344018494455423,-0.000157256027103259,-0.00466488082519412,-0.00429356873901687,-0.000180816990566601,-0.00608987505858671,-0.00250811858635069,-0.000636868443271155,-8.21316738965905e-05,-0.000115289336367397,-0.00259528973427026,-0.00399615721337021,-0.00369020092140104,-0.0124336723226279,-0.000241014446765053,-0.00445284553769287,-0.00064162383587707,-0.000891779749315535,-0.00344018494455423,-0.00145612920155624,0.000214482280513018,-0.00259528973427026,-3.91282956893058e-05,-0.00145415075777588,2.07083655947571e-05,-0.00150286450107728,-0.00367573484519035,-0.00177082562585174,-0.000115289336367397,-0.00121974026841087,-0.0066666774242643,-0.0150371711117634,-0.00145415075777588,-0.000875984839188604,-0.000803836591869889,-0.00235639910241048,0.277095623862253,4.53634630419586e-05,-0.000519175158752549,-8.21316738974787e-05,-0.00390685493361165,-0.00420412485736144,-0.00492411745082766,0.000751517828684989,-0.000169161676366159,-0.00193442091742613,-0.00322395562217581,-0.0016347167002575,-0.00492411745082766,-0.00542577463932226,-0.000169161676366159,-0.00122721906290613,-0.00170908800370029,-5.14553795447625e-05,4.53634630419586e-05,-0.00233561966088836,-0.00924214135414392,-0.000684062823426146,-0.000446434085602743,-0.000486229891543566,-0.00243314529311522,-5.14553795447625e-05,-0.00848890862302598,-0.000169161676366159,-0.0010862304313326,-0.0150371711117634,-0.000740393737171718,4.53634630419586e-05,-0.00451343104678292,-0.000716850808508696,-0.00226290974597054,-0.00300934694546573,-0.000169161676366159,-0.00191168036941436,-0.00399615721337021,-0.00122721906290613,4.53634630419586e-05,-0.00061391676040401,-0.00735676679479713,-8.21316738974787e-05,-0.000287607847472948,-0.00496014979237902,-0.00078445506516589,-0.00848890862302598,-0.00150528660807314,-0.00825162782035349,-0.00492411745082766,-0.00300934694546573,0.000359030752604461,-0.000169161676366159,-0.00150666078700645,-0.00399615721337021,-0.000320960061747755,-0.0150371711117634,-0.00105827710105322,-0.000486229891543566,-0.000115289336367397
"15:52696240:A:C",1.37058518845379e-05,-1.95545265011532e-05,-3.75126009242166e-05,-0.000125999976625657,0.000129978745046166,1.24173278743811e-05,-1.15959004727273e-05,-0.000125254434702349,-0.000907951763208459,-9.91201090370097e-05,-2.9375926131614e-05,3.42316178576496e-05,-2.74904783212904e-05,5.08393166676058e-06,0.00205388993281996,-2.74908600426116e-05,-7.06302828668015e-07,-7.06302828668015e-07,-0.000163216357290885,-2.36027549238571e-06,-1.9986561357932e-05,5.95638621856409e-05,-0.000254837345695869,1.24173278743811e-05,5.36460080713397e-05,-3.9194511509244e-05,-2.74908600426116e-05,4.36084850985452e-06,3.76502734749096e-05,-3.61447029373352e-06,-3.82299555399257e-05,-0.00016811020720997,-2.92724335588801e-05,0.00205388993281996,4.38211353674944e-05,-1.08106461826907e-05,-1.23904191751123e-05,3.76502734749096e-05,-2.03947845598407e-05,-6.28073825401643e-05,-0.000150247180832785,4.53634630419586e-05,-0.0115594096324498,7.13106065024505e-05,5.08393166676058e-06,5.30832448282226e-05,-2.14350637772753e-06,6.73926701200145e-05,-0.000103887460073615,-8.50887695591496e-06,-0.000193250085500196,7.15797028973952e-05,1.37058518845379e-05,6.73926701200145e-05,-9.26729003491999e-06,-8.50887695591496e-06,6.82880969877786e-05,-0.00038781938552912,7.78077916763209e-06,0.00205388993281996,0.000106646232721275,-2.83762147370581e-05,-0.000152288675246304,1.10980885885681e-05,-1.15959004736155e-05,9.57226152298318e-05,7.78077916763209e-06,1.0426605403957e-05,-8.50887695591496e-06,-1.7903192986779e-05,-1.23904191751123e-05,-2.2105353263413e-05,0.00205388993281996,0.000415172168023226,0.0010744157442435,-2.55422688049123e-05,-1.31943672529999e-05,-8.50887695591496e-06,-4.05800614622365e-06,-7.06302828668015e-07,6.82880969877786e-05,0.00205388993281996,3.23447187771109e-05,-1.95545265011532e-05,5.08393166676058e-06,-5.12039849809298e-06,1.53015108672605e-06,2.82210566560082e-05,1.0426605403957e-05,7.11818869802983e-06,-1.95545264993768e-05,6.73926701200145e-05,-1.31943672529999e-05,-4.62573883242001e-05,-8.50887695591496e-06,4.5677706259184e-05,-7.06302828668015e-07,-3.01793220174318e-05,-1.23904191751123e-05,-6.54350063209463e-05,-1.15959004736155e-05,0.00205388993281996
"15:52698210:C:G",-0.00012903100332462,-0.00172079254731816,-0.00102504797275227,-0.000768298269357093,-0.00426802873041554,-0.00285052804999708,-0.00206139440063513,-0.00139227309694911,-0.00345971106698251,-0.00242290043672178,0.000142502941309353,-0.000321872530490097,-0.000392958177982017,-5.33875095101166e-05,0.000141398453116892,-0.0035668146951604,4.11018962065413e-06,-0.00351814987469634,-0.00110271796702799,-0.000194133826424192,6.27732991809182e-05,-0.00291371189859291,-0.000597163097423525,-0.00285052804999708,-0.00280387254013359,-0.00246069632953816,-0.0035668146951604,-0.000557987581654373,-0.000356422863218242,-0.0017269516355114,-0.00132137035328839,-0.00161685101876863,-0.000331828094212838,0.000141398453116892,-0.00224948957712545,-0.00210636585417134,-0.00216921441202178,-0.000356422863218242,-0.000381285616010807,-0.000310867446687624,0.00046090619199024,-0.000519175158752549,7.13106065024505e-05,0.123122156394928,-5.33875095101166e-05,-0.00253519348136466,1.24649767272444e-05,-0.00542012890207655,3.50560408124423e-05,7.13106065024505e-05,-0.00214460546317641,-0.0010593297769379,-0.00369493463896031,-0.00542012890207655,7.57743192902893e-05,7.13106065024505e-05,-0.00303959676228072,-0.00259910997435897,-6.87670221051206e-05,7.13106065024505e-05,-0.0017046607381177,-0.00142916425700967,0.000392603708080586,-0.000201524851005885,-0.000224968812944759,-0.00136746010870681,-6.87670221051206e-05,-0.00145759797694822,7.13106065024505e-05,-0.00125132109576942,-0.00216921441202178,0.000170983101138944,7.13106065024505e-05,-0.00593654507747399,-0.00305557208611607,8.17866014148905e-05,9.88265386023812e-05,7.13106065024505e-05,-0.000462497063902667,4.11018962065413e-06,-0.00303959676228072,7.13106065024505e-05,-0.0001501609893797,0.000155954606260167,-5.33875095101166e-05,-0.00247698913639471,-0.00138979974227205,-0.000515360323836589,-0.00145759797694822,-6.49852394110084e-05,-0.00172079254731816,-0.00542012890207655,9.88265386023812e-05,0.000361363996324471,7.13106065024505e-05,-0.00147407050820725,4.11018962065413e-06,-0.0023055761884665,-0.00216921441202178,-7.813641412735e-05,-0.000224968812944759,0.000141398453116892
"15:52698930:T:C",-0.00197811323773767,1.12795477162919e-05,1.54028403045459e-05,-0.00466609504808879,-0.00586412222010413,-8.01303759523364e-06,6.78625804262367e-06,-0.00140772683761092,-4.25270590751481e-05,-0.00253456175735867,1.62995680934586e-05,5.58967422543688e-05,1.55588045096522e-05,6.2070843197759e-05,9.97833832716566e-06,-0.00227210077524731,4.084350075928e-07,4.084350075928e-07,-0.00154796421333181,-6.5689284332926e-05,1.12784118542208e-05,-4.2804293189036e-05,-1.47823827214566e-05,-8.01303759523364e-06,-3.86268983021409e-05,2.14274506831202e-05,-0.00227210077524731,-0.0040379426832482,-2.55490999716557e-05,2.07544683039629e-06,-0.00329443490350201,-0.00155179106367864,-0.0037046578560096,9.97833832716566e-06,-3.03151406404467e-05,6.35576771124136e-06,7.22006821263221e-06,-2.55490999716557e-05,-0.00339105373665216,-0.00211775042962969,-0.00102265634036858,-8.21316738974787e-05,5.08393166676058e-06,-5.33875095101166e-05,0.0676390649536192,-0.001154925049347,1.23522016881594e-06,5.57617596985693e-06,4.63492199855864e-05,5.08393166676058e-06,-0.00167981948210372,5.31497714950646e-05,-8.80425685600983e-06,5.57617596985693e-06,5.50463292636749e-06,5.08393166676058e-06,-5.00137723236094e-05,-0.00219570592430962,-4.87614766786493e-06,5.08393166676058e-06,-0.00131708190017754,1.60028430382653e-05,-4.74440906712559e-05,-7.20770652495872e-06,-0.00303871653258714,6.13961965765242e-05,-4.87614766786493e-06,-6.79964320760007e-06,5.08393166676058e-06,1.04089365695614e-05,7.22006821263221e-06,1.26093372081471e-05,5.08393166676058e-06,-0.00334334888675869,2.93832904620928e-05,-0.00215666676323067,7.65722661366652e-06,5.08393166676058e-06,-0.00414559524663805,4.084350075928e-07,-5.00137723236094e-05,5.08393166676058e-06,-2.20068250289529e-05,1.12795477154037e-05,6.2070843197759e-05,2.92938334567339e-06,-1.1779482997909e-06,5.55797249068846e-05,-6.79964320760007e-06,-4.47897512501072e-06,1.12795477171801e-05,5.57617596985693e-06,7.65722661366652e-06,-0.00130609432210793,5.08393166676058e-06,-3.15950248923613e-05,4.084350075928e-07,1.68999694221128e-05,7.22006821263221e-06,-0.00266737743707779,-0.00303871653258714,9.97833832716566e-06
"15:52699860:C:T",-0.000169866973206645,-0.00304120227576554,-0.000882851852865851,-0.00159896152857719,-0.00112694495304089,-0.00189842887159486,-0.000364883669524474,-0.00254070487260982,-0.00249081026147469,-0.00827662464396273,-0.000211455887420886,-0.000439112615001847,-0.0010330918555832,-0.001154925049347,6.56548766997389e-06,-0.00233500169298262,-0.00401196105813373,-0.00377479257448599,-0.00429662004581477,-0.00220646673516622,-0.000573546201804387,-0.00519721601453194,-0.00530169997057506,-0.00189842887159486,-0.00120595399249845,-0.00131523750366114,-0.00233500169298262,-0.00245389768260962,-0.000284878474032801,-6.59575080064201e-06,-0.000325154562171193,-0.00270188182137865,-0.000191100656318,6.56548766997389e-06,-0.00194627088029797,-0.00167751111641223,-0.0012950872827453,-0.000284878474032801,-2.32120041667727e-05,-0.00666280165822553,-0.00342858753453346,-0.00390685493361165,5.30832448282226e-05,-0.00253519348136466,-0.001154925049347,0.17382708324153,-0.00569447144299762,-1.10374005788394e-05,-0.000467496131078882,-5.50266341141636e-05,-0.00452845031074967,-0.0025392490461944,-0.000977486252721427,-1.10374005788394e-05,-0.00554257530412894,-5.50266341141636e-05,-0.00219615583970922,-0.00767547163903481,4.14491412454865e-05,5.30832448282226e-05,-0.0037383146576544,-0.00801388365053146,-0.00129937744274766,-0.000107406036245372,-0.000102648265944971,-0.00300489850557772,4.14491412454865e-05,-0.000321879917269285,-5.50266341141636e-05,-0.00252075662576789,-0.0012950872827453,-0.00161924375005462,5.30832448282226e-05,-0.00115027964744474,-0.000107775069207783,-0.000649248283998372,-0.000123558173394933,-5.50266341141636e-05,-0.00049617781859812,-0.00401196105813373,-0.00219615583970922,5.30832448282226e-05,-0.000284929394275935,-0.00634038513973412,-0.00115492504934789,-0.00158274610895592,-0.000317992440019843,-0.000160543400475888,-0.000321879917269285,-0.00141255356478176,-0.000729815825183167,-1.10374005788394e-05,-0.000123558173394933,-0.000397563284431968,-5.50266341141636e-05,-0.000385645417086522,-0.00401196105813373,-0.00222441709809296,-0.0012950872827453,-0.00404648315626588,-0.000102648265944971,6.56548766997389e-06
"15:52704378:A:G",3.17945616767901e-06,-5.11721772245011e-06,-0.000985591692010068,-0.000967604092549479,-0.00629544626571654,2.90625456322857e-06,-2.9370039582588e-06,-0.00529014391306148,1.10427436439409e-05,-0.00305475126892318,-7.90714558185357e-06,7.3249544492171e-06,-7.41033550344383e-06,1.23522016881594e-06,-4.44527560539143e-06,-0.00201884252203133,4.8944839274867e-06,-1.68433871294837e-07,-0.0050686115913896,-4.47009557369427e-07,-5.18219925638164e-06,-0.00304758952388884,4.96884307388257e-06,2.90625456322857e-06,1.03587216306877e-05,-1.09837022446158e-05,-0.00201884252203133,-0.00222299755331878,7.8256703526236e-06,-0.00249009039107939,-1.06837027837869e-05,-0.00510217322357054,-7.93025695156047e-06,-4.44527560539143e-06,8.8517465375304e-06,-2.73349665125266e-06,-3.14406621626517e-06,7.8256703526236e-06,-5.34901708793001e-06,-0.00261084952503321,-5.70082534760985e-05,-0.00420412485736144,-2.14350637772753e-06,1.24649767272444e-05,1.23522016881594e-06,-0.00569447144299762,0.0715022521511637,-2.43489820217491e-06,-3.50991596613781e-05,-2.14350637772753e-06,-0.00491653238321277,1.25850319605547e-05,3.17945616767901e-06,-2.43489820217491e-06,-0.000344537741024276,-2.14350637772753e-06,1.21034806879194e-05,-0.00435992450058187,1.84244523282473e-06,-2.14350637772753e-06,1.47183749925617e-05,-7.66804448382175e-06,-0.00511606487731164,-0.00222491539120639,-2.93700395914698e-06,1.43276850934626e-05,1.84244523282473e-06,2.47810249742741e-06,-2.14350637772753e-06,-0.00109690334044732,-3.14406621626517e-06,-5.82489661304919e-06,-2.14350637772753e-06,1.08295156904248e-05,-1.67194465339193e-05,-0.000107814055420263,-3.35476674084845e-06,-2.14350637772753e-06,-0.00217036287196404,4.8944839274867e-06,1.21034806879194e-05,-2.14350637772753e-06,6.93404003193621e-06,-5.11721772156193e-06,1.23522016881594e-06,-1.24196394946097e-06,4.14460296305208e-07,6.20486414515398e-06,2.47810249742741e-06,1.69450634412982e-06,-5.11721772067375e-06,-2.43489820217491e-06,-3.35476674084845e-06,-1.32827752885589e-05,-2.14350637772753e-06,9.12760578763994e-06,4.8944839274867e-06,-8.19707849952778e-06,-3.14406621626517e-06,-1.99012127399811e-05,-2.93700395914698e-06,-4.44527560539143e-06
"15:52708502:T:C",1.45317385022992e-05,-2.36375569047098e-05,-0.00122673428101105,-0.0016677051947438,-0.0118739216679682,-0.00255046233529477,-0.00268701879419453,-7.97338443185858e-05,-0.00180942033893405,-0.000229399718655543,-3.6914656201148e-05,-0.0038602152097722,-0.000963744344421258,5.57617596985693e-06,6.60406485364362e-05,-0.00235163786294912,-7.97445295575017e-07,-0.00404535361013103,-0.00220460269757128,-0.00436774490394587,-2.43060629818714e-05,-0.00141732097833369,-0.00245176220369014,-0.00255046233529477,-0.00583046573787449,-0.00267444424601671,-0.00235163786294912,-0.000537405899579291,3.58883832616286e-05,-4.13137444166267e-06,-4.93328268715842e-05,-0.00015901088254644,-0.000995488956513135,6.60406485364362e-05,-0.00300123761888393,-1.26564712905619e-05,-0.00173710701298102,3.58883832616286e-05,-0.00114945664423693,-8.42187539857875e-05,-0.00588216902499195,-0.00492411745082766,6.73926701200145e-05,-0.00542012890207655,5.57617596985693e-06,-1.10374005788394e-05,-2.43489820217491e-06,0.151149575223874,-0.00346783781463778,-9.86089853771688e-06,-0.000132423753361532,-0.00468792412971375,-0.00158098663986195,6.82185567386639e-05,-1.07764164942736e-05,-9.86089853771688e-06,-0.000366429739793617,-0.00032052161729057,8.45411333560975e-06,6.73926701200145e-05,-0.0102481485085892,-0.0036715912210239,-0.00298785852074968,1.18910333304356e-05,-0.00135960758422993,-0.0104577985341088,8.45411333560975e-06,1.12003881245215e-05,-9.86089853771688e-06,-2.14956878163974e-05,-0.00173710701298102,-2.69972354987047e-05,6.73926701200145e-05,-0.000573784579139591,-0.00346429095753464,-0.00169153341373907,-1.56050562933885e-05,-9.86089853771688e-06,-0.00406415649864389,-7.97445295575017e-07,-0.000366429739793617,6.73926701200145e-05,-0.00108739595083662,-0.0029028688160162,5.57617596985693e-06,-5.8897477011044e-06,1.67650031102085e-06,-0.00389940313754078,1.12003881245215e-05,7.7535274334295e-06,-2.36375569047098e-05,6.82185567386639e-05,-1.56050562933885e-05,-0.000881524985063997,-9.86089853771688e-06,-0.00424796718207077,-7.97445295575017e-07,-0.00298249992835498,-0.00173710701298102,-0.000220283050341052,-0.00135960758422993,6.60406485364362e-05
"15:52708679:G:A",0.000149127152027972,-0.00847036559873882,-0.0020428252597986,-0.0066493871724429,-0.00658940244163908,3.20235513644462e-05,-0.000154953865854068,-0.0094548298153776,-0.00279680625886591,-0.00141017892249717,-0.00125766323585275,-0.000240136303530925,-0.00034960492762881,4.63492199855864e-05,-0.000210662985906218,-5.87044198328002e-05,-1.15216739509094e-05,-1.15216739509094e-05,-0.00935265288034026,-0.000122713313965406,-0.00101098095786778,-0.00775911989494027,-0.00651028202667092,3.20235513644462e-05,9.71735493333625e-05,0.000696556250373348,-5.87044198328002e-05,-5.24040929210656e-05,-0.00762517430393217,-0.000321055313417418,-0.00217203788096754,-0.0087936933082946,-0.00037976384009486,-0.000210662985906218,4.58682147712608e-05,0.000288602829901841,-0.0030000818069178,-0.00762517430393217,-0.000265801516388997,-0.000896045248851784,-0.00459626397526147,0.000751517828684989,-0.000103887460073615,3.50560408124423e-05,4.63492199855864e-05,-0.000467496131078882,-3.50991596613781e-05,-0.00346783781463778,0.157538855544775,-0.000103887460073615,-0.00118213499939879,0.00040591147330149,0.000149127152027972,-0.00346783781463778,-0.000116360190006937,-0.000103887460073615,-0.00235597254403963,-0.00753768902379903,9.04409173596576e-05,-0.000103887460073615,0.00050240362600773,-0.00427436451657037,-0.00160724028804093,-0.00034865092553904,-0.000154953865854957,0.000496925041829854,9.04409173596576e-05,-0.000515718063986981,-0.000103887460073615,-0.000224127643077665,-0.0030000818069178,-0.000356570620708929,-0.000103887460073615,0.000988676960681278,-0.00189251646481914,7.14586018712993e-05,-0.00294023955955769,-0.000103887460073615,-0.000151114334325797,-1.15216739509094e-05,-0.00235597254403963,-0.000103887460073615,-0.00598997590049333,-0.00340314594388325,4.63492199855864e-05,-0.00351714766877187,-0.00072859463334396,0.000198520232878252,-0.000515718063986981,7.96691939788374e-05,-0.00123107334989569,-0.00346783781463778,-0.00294023955955769,0.000267763888674111,-0.000103887460073615,0.000502325186952035,-1.15216739509094e-05,0.000283811324635508,-0.0030000818069178,-0.000902709672039315,-0.000154953865854957,-0.000210662985906218
"15:52712988:T:C",1.37058518845379e-05,-1.95545265011532e-05,-2.85502515549041e-05,-9.23581216687452e-05,-0.000129810041682887,1.24173278743811e-05,-1.15959004727273e-05,-2.3764135381299e-05,-0.000907951763208459,-9.91201090370097e-05,-2.9375926131614e-05,3.42316178576496e-05,-2.74904783212904e-05,5.08393166676058e-06,0.00205388993281996,-2.74908600426116e-05,-7.06302828668015e-07,-7.06302828668015e-07,3.2844861841852e-05,-2.36027549238571e-06,-1.9986561357932e-05,5.95638621856409e-05,-0.000254837345695869,1.24173278743811e-05,5.36460080713397e-05,-3.9194511509244e-05,-2.74908600426116e-05,4.36084850985452e-06,3.76502734749096e-05,-3.61447029373352e-06,-3.82299555399257e-05,2.95360279309875e-05,-2.92724335588801e-05,0.00205388993281996,4.38211353674944e-05,-1.08106461826907e-05,-1.23904191751123e-05,3.76502734749096e-05,-2.03947845598407e-05,-6.28073825401643e-05,-0.000150247180832785,-0.000169161676366159,-8.50887695591496e-06,7.13106065024505e-05,5.08393166676058e-06,-5.50266341141636e-05,-2.14350637772753e-06,-9.86089853771688e-06,-0.000103887460073615,-0.0125316305909484,8.35948484469995e-05,7.15797028973952e-05,1.37058518845379e-05,-9.86089853771688e-06,-9.26729003491999e-06,0.00205388993281996,6.82880969877786e-05,-8.69573945845303e-05,7.78077916763209e-06,-8.50887695591496e-06,0.000106646232721275,-2.83762147370581e-05,-0.000152288675246304,1.10980885885681e-05,-1.15959004736155e-05,9.57226152298318e-05,7.78077916763209e-06,1.0426605403957e-05,0.00205388993281996,-1.7903192986779e-05,-1.23904191751123e-05,-2.2105353263413e-05,-8.50887695591496e-06,-0.000492370244461249,-5.63891597220589e-05,-2.55422688049123e-05,-1.31943672529999e-05,0.00205388993281996,-4.05800614622365e-06,-7.06302828668015e-07,6.82880969877786e-05,-8.50887695591496e-06,3.23447187771109e-05,-1.95545265011532e-05,5.08393166676058e-06,-5.12039849809298e-06,1.53015108672605e-06,2.82210566560082e-05,1.0426605403957e-05,7.11818869802983e-06,0.000627290566913352,-9.86089853771688e-06,-1.31943672529999e-05,-4.62573883242001e-05,0.00205388993281996,4.5677706259184e-05,-7.06302828668015e-07,-3.01793220174318e-05,-1.23904191751123e-05,-6.54350063209463e-05,-1.15959004736155e-05,0.00205388993281996
"15:52715620:G:C",-0.000443098671561337,-0.000310201788399134,-0.00214590318899033,-0.00226469553915409,-0.000701641648604312,-8.69951280160208e-05,-0.00367456844998681,-0.00773426665787857,-0.000481942457573492,-0.00194210852776289,-0.00208389236847806,-0.00333221677062978,8.26684179751069e-05,-0.00167981948210372,-0.000101146360097282,-2.84206937437581e-05,-0.00364075198828928,-2.43984763743654e-05,-0.00354648522822165,6.00140051600917e-05,-0.000861159034083681,-0.0029670790569889,-0.00241584055181576,-8.69951280160208e-05,-0.000749234238492935,-0.0045835603754929,-2.84206937437581e-05,-0.000560281350000746,-0.00061858891416211,-0.000370028062066652,-0.00186199818005406,-0.0068806342187564,0.000209525899119711,-0.000101146360097282,-0.000568515993417229,-0.000283351878335836,-2.30724383909475e-05,-0.00061858891416211,0.00017132639011308,-0.00237802446588598,-0.00335870733589694,-0.00193442091742613,-0.000193250085500196,-0.00214460546317641,-0.00167981948210372,-0.00452845031074967,-0.00491653238321277,-0.000132423753361532,-0.00118213499939879,8.35948484469995e-05,0.14669668188398,-0.00113179134348496,-2.19704076638294e-05,-0.000132423753362865,-0.00503024722191903,8.35948484469995e-05,-0.000244844451441129,-0.00697789913419555,-8.70127247107888e-05,-0.000193250085500196,-0.00285398864984288,-0.00346347252849366,-0.00107560263864137,-0.000116670456514534,4.38491140073438e-05,-0.000572641084761294,-8.70127247107888e-05,-0.00160183800464564,8.35948484469995e-05,-0.00606763788653275,-2.30724383891712e-05,-0.000595876851221089,-0.000193250085500196,-0.00113793466408074,-0.000912728822449971,-0.00094685452091392,5.59683947827239e-05,8.35948484469995e-05,-0.000714839729064387,-0.00364075198828928,-0.000244844451441129,-0.000193250085500196,-0.000555863626404474,-0.00683670116518353,-0.00167981948210372,-0.000508263568889333,-0.00308787346162642,-0.000341684962810618,-0.00160183800464564,-0.00156953431420881,3.3869317266344e-05,-0.000132423753362865,5.59683947827239e-05,-0.00219028589525205,8.35948484469995e-05,-0.000295058236369883,-0.00364075198828928,-0.00611673393192902,-2.30724383891712e-05,-0.000679519239941584,4.38491140073438e-05,-0.000101146360097282
"15:52728368:T:G",0.000169150611603719,-0.00147319504406518,-0.00146389193490037,-0.00247747419324984,-0.00641521340897899,-0.000117931495461576,-0.00568264190119816,-0.00255328585847847,-0.000668302657695463,-0.00205998163975085,-0.00130958350919474,-0.00818052043530049,-7.99446325752129e-05,5.31497714950646e-05,0.000139824868262473,0.000149493680002166,4.15187786639848e-06,-0.00369038418732082,-0.00239429418914705,-0.000760107376932773,8.90454587816336e-05,-0.000473218395161901,-0.000412764570914881,-0.000117931495461576,0.0008292262128613,-0.00265628716976174,0.000149493680002166,-8.66623369857322e-05,-0.00468661864616404,-0.000901640624698885,8.72039680333003e-05,-0.00335716551710163,-0.000686473556127609,0.000139824868262473,-0.000373085103621662,-0.0018588067716685,-0.000817675757062375,-0.00468661864616404,-0.00114513906344271,0.000307421965857202,-0.00757550037500021,-0.00322395562217581,7.15797028973952e-05,-0.0010593297769379,5.31497714950646e-05,-0.0025392490461944,1.25850319605547e-05,-0.00468792412971375,0.00040591147330149,7.15797028973952e-05,-0.00113179134348496,0.134674483285316,-0.00386171784042944,-0.00468792412971375,7.60105474570949e-05,7.15797028973952e-05,-0.000300269169038359,-0.00319092060091464,-7.10165277180153e-05,7.15797028973952e-05,-0.00149620968614883,-0.00118374170410451,0.000258867710990263,-0.00321099326371588,-0.00222539619426154,-0.00183268537971859,-7.10165277180153e-05,-0.0013945155713353,7.15797028973952e-05,-0.00100364584033397,-0.000817675757062375,-0.00166909865170695,7.15797028973952e-05,-0.00205201877238981,-0.00300143288913191,-0.00298482825157098,-0.000690138631802562,7.15797028973952e-05,-0.000207467440816345,4.15187786639848e-06,-0.000300269169038359,7.15797028973952e-05,-0.000187282121902221,0.000153938131897569,5.31497714950646e-05,9.86719663753632e-06,-0.00342679932880863,0.000289688988637238,-0.0013945155713353,-6.71505587028776e-05,-0.00147319504406518,-0.00468792412971375,-0.000690138631802562,-0.000762368623673737,7.15797028973952e-05,-0.00271894323615296,4.15187786639848e-06,-0.00249180349557498,-0.000817675757062375,0.000102780281532766,-0.00222539619426154,0.000139824868262473
"15:52729171:G:T",-2.30785079420315e-05,3.08722657784699e-05,-0.00140470900167244,-0.000586625450005762,-0.000213654243069961,-2.11433663155347e-05,1.8234182858734e-05,-0.000638747714423182,-0.000906042047371436,0.000144553437328554,4.49708250940262e-05,0.000164654890240534,4.32725699948122e-05,-8.80425685600983e-06,2.72986605045489e-05,4.22837452704883e-05,1.04892504904086e-06,1.04892504904086e-06,-0.000527362420216448,-0.000207493907801393,3.04211886010819e-05,-0.000104596017427738,-0.0012862791314161,-2.11433663155347e-05,-0.00350635693125767,6.07851433231943e-05,4.22837452704883e-05,-1.07750139202167e-05,-6.43295265687627e-05,5.35469331097715e-06,-0.00213978979203233,-0.000560161325197761,4.58202421169673e-05,2.72986605054371e-05,-7.5784088744868e-05,1.70845784310814e-05,1.93957690086677e-05,-6.43295265687627e-05,3.20880103990007e-05,9.41657570132648e-05,-0.00146123205780135,-0.0016347167002575,1.37058518845379e-05,-0.00369493463896031,-8.80425685600983e-06,-0.000977486252721427,3.17945616767901e-06,-0.00158098663986195,0.000149127152027972,1.37058518845379e-05,-2.19704076638294e-05,-0.00386171784042944,0.0431113002899641,-0.00158098663986195,1.48205897207987e-05,1.37058518845379e-05,-0.000755980429960168,-0.00134657070106581,-1.28347736954026e-05,1.37058518845379e-05,-0.00401100260663867,4.45399261010948e-05,0.0002094052578272,-1.91662664814629e-05,1.8234182858734e-05,-0.00479789263275876,-1.28347736954026e-05,-1.81615566576809e-05,1.37058518845379e-05,2.84777748458254e-05,1.93957690086677e-05,3.4557445749428e-05,1.37058518845379e-05,-0.000101244608787354,-0.00333516531452904,3.83934245062889e-05,2.05695227446512e-05,1.37058518845379e-05,3.24597425649387e-06,1.04892504904086e-06,-0.000755980429960168,1.37058518845379e-05,-0.00117272174402139,3.08722657775817e-05,-8.80425685600983e-06,7.57604324963523e-06,-3.52039672613103e-06,0.000149914694587139,-1.81615566576809e-05,-1.1842850468291e-05,3.08722657784699e-05,-0.00158098663986195,2.05695227446512e-05,7.15045075470044e-05,1.37058518845379e-05,-7.85923227599739e-05,1.04892504904086e-06,4.71137141913047e-05,1.93957690086677e-05,9.85198068850224e-05,1.8234182858734e-05,2.72986605045489e-05
"15:52729182:C:A",1.45317385022992e-05,-2.36375569047098e-05,-0.00122673428101105,-0.0016677051947438,-0.0118739216679682,-0.00255046233529477,-0.00268701879419453,-7.97338443185858e-05,-0.00180942033893405,-0.000229399718655543,-3.6914656201148e-05,-0.0038602152097722,-0.000963744344421258,5.57617596985693e-06,6.60406485364362e-05,-0.00235163786294912,-7.97445295575017e-07,-0.00404535361013103,-0.00220460269757128,-0.00436774490394587,-2.43060629818714e-05,-0.00141732097833369,-0.00245176220369014,-0.00255046233529477,-0.00583046573787449,-0.00267444424601671,-0.00235163786294912,-0.000537405899579291,3.58883832616286e-05,-4.13137444166267e-06,-4.93328268715842e-05,-0.00015901088254644,-0.000995488956513135,6.60406485364362e-05,-0.00300123761888393,-1.26564712905619e-05,-0.00173710701298102,3.58883832616286e-05,-0.00114945664423693,-8.42187539857875e-05,-0.00588216902499195,-0.00492411745082766,6.73926701200145e-05,-0.00542012890207655,5.57617596985693e-06,-1.10374005788394e-05,-2.43489820217491e-06,6.82185567386639e-05,-0.00346783781463778,-9.86089853771688e-06,-0.000132423753362865,-0.00468792412971375,-0.00158098663986195,0.151149575223875,-1.07764164942736e-05,-9.86089853771688e-06,-0.000366429739793617,-0.00032052161729057,8.45411333560975e-06,6.73926701200145e-05,-0.0102481485085892,-0.0036715912210239,-0.00298785852074968,1.18910333304356e-05,-0.00135960758422993,-0.0104577985341088,8.45411333560975e-06,1.12003881245215e-05,-9.86089853771688e-06,-2.14956878163974e-05,-0.00173710701298102,-2.69972354987047e-05,6.73926701200145e-05,-0.000573784579139591,-0.00346429095753464,-0.00169153341373907,-1.56050562933885e-05,-9.86089853771688e-06,-0.00406415649864389,-7.97445295575017e-07,-0.000366429739793617,6.73926701200145e-05,-0.00108739595083662,-0.0029028688160162,5.57617596985693e-06,-5.8897477011044e-06,1.67650031102085e-06,-0.00389940313754078,1.12003881245215e-05,7.7535274334295e-06,-2.36375569047098e-05,6.82185567386639e-05,-1.56050562933885e-05,-0.000881524985063997,-9.86089853771688e-06,-0.00424796718207077,-7.97445295575017e-07,-0.00298249992835498,-0.00173710701298102,-0.000220283050341052,-0.00135960758422993,6.60406485364362e-05
