"","18:47381844:A:C","18:47384575:T:C","18:47386303:T:C","18:47386307:A:C","18:47388700:G:C","18:47388981:C:T","18:47390805:C:T","18:47391025:T:G","18:47393652:G:A","18:47396831:A:G","18:47398787:G:C","18:47399291:C:T","18:47400397:C:T","18:47401234:A:G","18:47402488:A:G","18:47405048:A:G","18:47405820:T:A","18:47406365:G:A","18:47408803:T:C","18:47410186:C:T","18:47410854:A:T","18:47411162:C:T","18:47412060:C:T","18:47414683:A:T","18:47417485:T:A","18:47417693:C:A","18:47418820:C:T","18:47419247:G:C","18:47419248:C:A","18:47422280:C:T","18:47425284:T:C","18:47426501:A:T","18:47430194:C:T","18:47433745:G:C","18:47434681:C:T","18:47435213:G:C","18:47435415:G:A","18:47435643:G:A","18:47435908:C:T","18:47437303:C:T","18:47439216:G:A","18:47442767:G:T","18:47443652:G:A","18:47445407:C:T","18:47447858:A:C","18:47449241:C:T","18:47450607:G:A","18:47453072:A:G","18:47453787:C:G","18:47453882:C:T","18:47454438:G:T","18:47455018:G:A","18:47455923:C:T","18:47457689:C:T","18:47457698:G:T","18:47458001:G:T","18:47458228:C:T","18:47459061:A:C","18:47460085:G:A","18:47460128:C:T","18:47460314:C:T","18:47464162:G:C","18:47465736:G:C","18:47469062:G:A","18:47469169:T:C","18:47471452:C:T","18:47473213:C:T","18:47473620:C:T","18:47474843:A:G","18:47475114:T:G","18:47478282:A:T","18:47479855:A:C","18:47480625:T:C","18:47482530:C:T","18:47483907:T:C","18:47484139:A:G","18:47486720:A:G","18:47488345:T:C","18:47489597:A:C","18:47493731:A:G","18:47494673:G:A","18:47495472:T:C","18:47499835:A:G","18:47500836:G:A","18:47501418:G:A","18:47504274:A:T","18:47512198:A:G","18:47516144:T:C","18:47516411:C:T","18:47517080:C:T","18:47518200:T:A","18:47518652:A:G","18:47521160:T:C","18:47523322:A:T","18:47528129:G:T","18:47528757:T:C","18:47532757:G:A","18:47534548:T:G","18:47534680:C:A","18:47535486:G:A","18:47536822:G:A","18:47537227:T:C","18:47540738:T:C","18:47543518:C:T","18:47543853:G:A","18:47547826:G:A","18:47547912:A:T","18:47549545:G:T","18:47551652:A:C","18:47552344:G:T","18:47552648:A:G","18:47556833:G:T","18:47560942:C:T","18:47561895:C:T","18:47563914:T:G","18:47564512:T:G","18:47565051:C:T","18:47565819:A:G","18:47565926:C:T","18:47566445:G:T","18:47568714:T:G","18:47573732:G:A","18:47576318:T:C","18:47578402:G:A","18:47583036:C:A","18:47585050:G:A","18:47585254:G:A","18:47586233:C:T","18:47586697:C:A","18:47589323:G:A","18:47593886:A:T","18:47596517:T:G","18:47596892:G:A","18:47599701:A:G","18:47600138:T:C","18:47601394:C:T","18:47603721:C:T","18:47605086:T:C","18:47607260:G:A","18:47609965:C:T","18:47610455:G:A","18:47615150:T:G","18:47615529:C:A","18:47617088:T:C","18:47618436:T:C","18:47620029:G:C","18:47622497:A:G","18:47627034:G:T","18:47627358:G:A","18:47628708:A:G","18:47629021:G:C","18:47630910:T:C","18:47631526:G:A","18:47632322:T:C","18:47633461:C:T","18:47634364:C:T","18:47636548:G:C","18:47637895:C:T","18:47638861:G:A","18:47639308:A:G","18:47639553:G:A","18:47640288:C:A","18:47640772:G:A","18:47641411:C:G","18:47641965:A:G","18:47645264:C:T","18:47647226:G:A","18:47649983:C:T","18:47653317:G:A","18:47653881:T:G","18:47654952:C:T","18:47656687:T:C","18:47656841:A:G","18:47657048:C:T","18:47658040:C:G","18:47660849:C:T","18:47662360:T:C","18:47665918:G:A","18:47666623:A:C","18:47666651:C:T","18:47666993:T:C","18:47668501:A:G","18:47669268:G:A","18:47669381:C:A","18:47670947:C:A","18:47672191:G:A","18:47673852:A:G","18:47676947:G:A","18:47680464:T:C","18:47683135:A:G","18:47684398:T:C","18:47684469:C:T","18:47685580:C:G","18:47686060:G:A","18:47686370:A:G","18:47686432:C:T","18:47688169:C:T","18:47692064:A:G","18:47692519:C:T","18:47693130:T:C","18:47700200:T:G","18:47703282:T:A","18:47703775:G:T","18:47704736:T:C","18:47705364:A:G","18:47706621:C:T","18:47706887:G:A","18:47707423:G:A","18:47707547:T:C","18:47708592:T:C","18:47711737:G:A","18:47715512:G:A","18:47716050:A:G","18:47720453:G:A"
"18:47381844:A:C",0.136412235412951,0.000394244905264962,-1.18536509257083e-05,-1.27803761511558e-05,5.92856881009851e-06,1.74097365617243e-05,-6.6858912848744e-05,0.000129205216054196,-0.00159872855399001,-0.00136553395100059,0.000394244905264962,-9.45401745244823e-05,-3.38395262593494e-05,-0.000111352900862727,1.59467735638685e-05,0.000409157536270577,-1.46692046616437e-05,-8.73713710776158e-05,0.000412346968180266,-4.16108780738611e-05,9.38723303534061e-07,-0.00210888381617735,1.59467735638685e-05,-0.00137335883134515,5.92856881009851e-06,9.09020117845216e-06,6.73373931014964e-06,0.00040531245285802,5.11324833674109e-06,1.74655340856589e-06,7.52894712441332e-06,-8.2640876493123e-05,-9.84399772070432e-05,0.000118813714707677,1.29089756910616e-05,-0.0095106960930309,-2.32147307421826e-05,0.000402724454175996,5.01490398683302e-05,-2.53346335288285e-06,1.52015690160212e-05,0.00011046136135473,5.92856881009851e-06,-0.00149797310478927,-6.97328232757144e-06,2.44186253564038e-05,-6.97328232757144e-06,-1.27803761511558e-05,0.000402724454175996,-2.62945915201485e-05,3.48247568888738e-05,-8.2640876493123e-05,3.50665575483688e-05,0.00011110093934974,-2.53346335288285e-06,-7.48425946168751e-05,-0.00402653115130658,-0.00182405846537215,-0.00134583521718223,-0.00130831060775982,3.16497465098209e-05,5.31442061326715e-05,-3.60356885256152e-05,-0.00178830441459876,3.4513846918216e-06,-2.62945915201485e-05,1.12023948135587e-05,6.73373931014964e-06,-0.00132123640681048,9.09020117845216e-06,3.29436296953034e-05,3.42054778990075e-05,-3.39914714597711e-06,-0.00192057321626837,-0.00026724486744989,-1.07361768604264e-05,5.99577348445735e-05,-0.00307702104388863,5.11324833674109e-06,4.85158685235021e-05,3.29436296961916e-05,0,-0.000187192653053891,-2.52548099082262e-05,2.49334569151216e-05,-0.00395735957606735,5.27376277981162e-05,-0.00105408675281549,-0.0025341723431227,2.46544353759148e-05,7.52894712441332e-06,2.3021008878743e-05,-6.5040258814264e-06,-0.00410104304445902,8.10380069555805e-05,-0.00187603183259366,0,-0.00481833285235567,-0.000303586165182779,-0.000143246818077536,-0.00206918461752359,-7.92994160372373e-05,-0.00243356699358799,-5.1635129310057e-06,9.09020117845216e-06,-0.00981257651465839,5.68546989194729e-05,-0.00123935025353816,3.4513846918216e-06,4.2875859094238e-06,-0.000152473023627309,-0.00204587358542163,-0.000318900338282191,-1.79881035844431e-06,0,4.2875859094238e-06,-1.46692046607555e-05,8.31437497694765e-06,3.4513846918216e-06,-1.27803761511558e-05,2.3021008878743e-05,-3.0527708518413e-05,-0.000287961754809274,5.92856881009851e-06,-0.000334035504675256,-1.46692046607555e-05,0,1.29089756910616e-05,0,-0.0015626122183221,-2.42282728271093e-05,-0.000143246818078424,6.92169122693542e-05,-2.94959959239449e-05,3.4513846918216e-06,-0.00403155918783416,1.59467735638685e-05,-2.42282728271093e-05,-0.00357107310234284,0,-0.00331387960542173,-1.96084147026099e-05,5.17214553177325e-05,-0.0015626122183221,-0.00422151908398849,-0.00161647581578084,-9.63995965008735e-05,-0.00238034363205397,-0.000131967947764267,0,-0.00378178516007921,-0.00427301139026071,-1.46692046607555e-05,-0.00207372401156825,-4.70150162019678e-05,-8.34084366907462e-07,-4.46578230306471e-05,8.77504030327714e-07,3.23007679208231e-05,0,2.08570710880096e-05,-0.00131433359402511,1.36828494881058e-05,2.57817811100125e-05,-1.56317577175713e-05,-0.00286926141502253,-0.00418598410136806,4.06433354722679e-05,-5.5771203824051e-05,2.57817811100125e-05,-5.81960345540367e-05,-0.0013569465682286,-0.00427577033879256,9.09020117845216e-06,-0.000167848041344065,2.08570710880096e-05,-0.00186971100669719,-0.00311996129951986,-3.44519072852378e-05,2.71117295014278e-05,2.71117295014278e-05,-5.1635129310057e-06,-6.55663685638075e-05,5.06797600126063e-05,1.52015690160212e-05,3.03225981514998e-05,4.49136285451956e-05,-5.32139470212911e-05,9.09020117845216e-06,-0.00142663352984407,0,-1.46692046607555e-05,-0.000196517755130188,6.73373931014964e-06,-0.00496919247626959,-0.000144999410813362,9.32131146020865e-05,-5.1635129310057e-06,-1.00344951761144e-05,-0.00291310453051707,-8.83021857589483e-06,-0.00195522546151761,-6.82259252098305e-05,2.51044310441983e-05,1.1331268595427e-05,-0.000135899050094146,-0.000149474689986384,-1.46692046607555e-05,0.000401709502422243,-0.000446787078386635,2.3021008878743e-05,-0.000135916619975696,-0.000246209126777863,-0.0033241441229519
"18:47384575:T:C",0.000394244905264962,0.344612222852367,0.000394244905264962,-0.000174548586442391,-0.00158719001074648,-0.00180533850272102,-0.00304454489794637,-0.00221431141324668,-0.000151549875054169,-0.000817145245286532,0.00481417907667581,-0.000430789253040409,-0.00136849241127113,-0.00176326871915666,-0.0023154216818444,0.000568454049213685,-0.00309731213495468,-0.00141578309093138,0.00399278483041865,-0.00113244449041705,-0.000127109974260797,-0.00855396610894399,-0.0023154216818444,-0.000837950356439521,-0.00158719001074648,-0.000961415474489691,-0.00273969132381069,0.00260789797464778,-0.00148580864411318,-0.000200375487253268,-0.00143935154703811,-0.000276320931135388,-0.00157769351917114,-0.00214419516642117,0.000122213724750075,-0.000920783966726901,-0.00086338013922127,0.00436566707331743,-0.000840711366409508,-0.003339933639805,0.00016516014451895,-0.00143076995730507,-0.00158719001074648,-0.000565354023398079,-0.00029128648612442,-0.00212152761202677,-0.000125145956454631,-0.000174548586442391,0.00436566707331743,-0.00167323533926655,-0.00331158620674632,-0.000276320931135388,-0.000471167567744235,0.000883254836579361,-0.000604583939171732,-0.000595226577249086,0.000312625866540905,-0.0099928221980301,-0.000902505614532423,-0.0143493753714523,-0.00159355073847678,0.00012027654834057,0.000205839322325652,-0.00983812691939878,-0.00138522158120846,-0.000703883789617166,-0.00576584191110552,-0.00273969132381069,-0.0151955992026331,0.000110090539532592,-0.00466388792971539,-0.00170915192643317,-6.08322849471321e-05,-0.00475713029883096,-0.00240110202479071,-0.000372993768784191,-0.000525125582930386,-0.0042314781441255,-0.00148580864411318,-0.00188872909525895,-0.00175320928839451,0,-0.00480682496778595,-0.00307903328649317,-0.000802446312885507,-0.00771425789301761,-0.00106161513298986,-0.000744749408768897,-0.00196769151142906,-0.00125887256379631,8.16450132363755e-05,-0.00162852154970317,-0.00316529427451506,-0.00198047107529664,-0.00447814056716744,-0.0025750085795897,0,-0.00582895079245871,-0.00034815837706148,-0.00124342807112043,-0.00406269052364649,-0.000755844068383915,-0.00339703983385142,-9.25356552929912e-05,0.000110090539532592,-0.0103441131693565,-0.00185782114785038,-0.00286961600238556,6.99582294139134e-06,2.2346694704467e-05,-0.00023244303997938,-0.00329755133626453,-0.00450402582428966,-8.98885134033023e-05,0,2.2346694704467e-05,-0.00114998411112754,-0.00118910945869199,-0.00138522158120846,-0.000174548586442391,0.000250603883015899,-0.000109320944353009,-0.00127784859855051,-0.00280041933124853,-0.00436925355277706,-0.000629202412757657,0,-0.00146528494509468,0,-0.000200236264982223,-0.000630339018184323,-0.0003324670516065,-0.00195493935720403,-0.00125998587708587,-0.00309260209780593,-0.000174503810574489,-0.0015938290030455,-0.000630339018184323,-0.00333939625078994,0,-0.0114113783966809,-0.00128872281219294,-0.0014056468813255,-0.000200236264982223,-0.00713162993157823,-0.00222512350968973,-0.000273156018620213,0.000682040612209889,-0.000329403664510508,0,-0.0033442993102577,-0.00492271474903605,-0.000401392587221494,-0.00158719001074648,0.000606033156807406,-1.48971577491608e-05,0.00014575707939013,-0.000207477078690843,-0.0053191675936759,0,-0.000478752037063046,-0.00168875712141858,-0.00257410942836511,0.000303482765104945,-0.0024265228426783,-0.00251078809065675,-0.00151626973667218,-6.77540801561349e-05,-0.00323100046146596,0.000303482765104945,0.000648748778540487,-0.000157273760490462,-0.0023600079688042,0.000110090539532592,-0.000469849069502537,-0.00141542697066477,-0.000110785693537174,-0.00288122952394243,-0.0105011893806481,-0.000727254896777829,-0.00318560592228767,-1.29696466180107e-05,-0.000517525374911898,4.20771218765381e-05,-0.00242909629573784,-2.71336733419503e-05,-0.000494783232501739,-0.000771362629475192,0.000110090539532592,-0.00019225009059376,0,-0.000629202412757657,0.000185574601557548,-0.000972498967175994,-0.00893802913205421,-0.0039156778231062,-0.000190901553914991,-1.29696466180107e-05,-0.000126221546535632,-0.00212104465760543,-0.00146651897452266,-0.00322520080761102,-0.00152212519785966,-0.00198432376832081,9.25521770600568e-05,0.000264196262811822,-0.00110512253146755,-0.000629202412757657,0.000385091598902321,-0.0011337562196001,-0.00331259087036351,-0.000961932152282685,-0.00501340985688969,-0.00131789270914062
"18:47386303:T:C",-1.18536509257083e-05,0.000394244905264962,0.212603429296213,-1.27803761511558e-05,5.92856881009851e-06,1.74097365617243e-05,-0.00359243022475297,-0.00194541910506718,-0.00306081605471409,-4.23985205264543e-05,0.000394244905264962,-9.45401745244823e-05,-3.38395262593494e-05,-0.00410353397170038,1.59467735638685e-05,-1.09384277209301e-05,-0.0016829474836717,-0.00388886177865988,-0.00204024535403224,-0.00336906287107031,-0.00307499087466123,-0.00210888381617735,1.59467735638685e-05,-4.36717976244339e-05,5.92856881009851e-06,9.09020117845216e-06,6.73373931014964e-06,-0.00209863607318006,5.11324833674109e-06,1.74655340856589e-06,-0.0032829535028025,-8.2640876493123e-05,-0.00401034682923029,-0.00191067401111678,1.29089756910616e-05,-0.00167356865373947,-2.32147307421826e-05,-0.00210164161261162,5.01490398683302e-05,-2.53346335288285e-06,1.52015690160212e-05,0.00011046136135473,5.92856881009851e-06,-2.2188009818791e-05,-6.97328232757144e-06,2.44186253564038e-05,-6.97328232757144e-06,-1.27803761511558e-05,-0.00210164161261162,-0.00102311618271145,3.48247568888738e-05,-8.2640876493123e-05,-0.00312429348396126,0.00011110093934974,-0.00164121176605736,-7.48425946168751e-05,-0.00446167606300207,-0.00182405846537215,0.000111492738531282,-0.000378301267076608,3.16497465098209e-05,5.31442061326715e-05,-3.60356885256152e-05,-0.00178830441459876,3.4513846918216e-06,-2.62945915201485e-05,-0.00297787699380958,6.73373931014964e-06,-0.0004172216721825,9.09020117845216e-06,3.29436296953034e-05,3.42054778990075e-05,-3.39914714597711e-06,1.48994946220782e-05,-0.00176107506049483,-0.00158784001768275,5.99577348445735e-05,-0.00192739037200784,5.11324833674109e-06,4.85158685235021e-05,3.29436296961916e-05,0,-0.00172250100925098,-0.0039673039239041,-0.000190961304942228,-1.80407748295863e-06,5.27376277981162e-05,-1.09384277209301e-05,3.29436296953034e-05,2.46544353759148e-05,7.52894712441332e-06,2.3021008878743e-05,-6.5040258814264e-06,-0.000420024885676717,-0.00022875221947416,-0.00406016756682348,0,-0.00376382098836903,-0.000303586165182779,-0.000812404358230268,-0.0035044892090399,-7.92994160372373e-05,7.40090774202784e-05,-5.1635129310057e-06,9.09020117845216e-06,-6.42622682196503e-05,5.68546989194729e-05,0.000399367511257687,3.4513846918216e-06,4.2875859094238e-06,-0.000687781955837075,2.08570710880096e-05,-0.00301245582060439,-1.79881035844431e-06,0,4.2875859094238e-06,-1.46692046607555e-05,-0.00274647658991789,3.4513846918216e-06,-1.27803761511558e-05,2.3021008878743e-05,-3.0527708518413e-05,6.39593795206395e-05,5.92856881009851e-06,-0.00299588361420078,-1.46692046607555e-05,0,1.29089756910616e-05,0,-8.47766726153054e-06,-2.42282728271093e-05,-0.000857123589906195,-0.000822597932039315,-2.94959959239449e-05,3.4513846918216e-06,-0.000559620128427696,-0.00717620744160286,-2.42282728271093e-05,-0.00353180614259685,0,-0.00997991954772459,-1.96084147026099e-05,-0.00218942593788896,-8.47766726153054e-06,-7.61165883211845e-06,-0.00293221035512037,-9.63995965008735e-05,-0.00238034363205397,-0.000936515493958012,0,-0.00345481395420411,-0.00406847638832186,-1.46692046607555e-05,5.92856881009851e-06,-4.70150162019678e-05,-8.34084366907462e-07,-4.46578230306471e-05,8.77504030327714e-07,-0.00881666710585005,0,-0.00479902142138133,-0.00131433359402511,1.36828494881058e-05,2.57817811100125e-05,-1.56317577175713e-05,1.44469867153774e-05,-0.00956104600928054,4.06433354722679e-05,-5.5771203824051e-05,2.57817811100125e-05,-5.81960345540367e-05,-4.11431279792041e-05,-0.00945532993302489,9.09020117845216e-06,-0.000930502635814179,2.08570710880096e-05,1.05270483574671e-05,4.2875859094238e-06,-3.44519072852378e-05,2.71117295014278e-05,-0.00570202761921212,-0.00337085964742556,-6.55663685638075e-05,5.06797600126063e-05,1.52015690160212e-05,3.03225981514998e-05,4.49136285451956e-05,-5.32139470212911e-05,9.09020117845216e-06,-3.0527708518413e-05,0,-1.46692046607555e-05,-0.00327829261768464,-0.00630366712656194,-0.00928571851504501,-0.00363032283346687,9.32131146020865e-05,-0.00337085964742556,-1.00344951761144e-05,3.35784836584807e-05,-8.83021857589483e-06,1.2125179062572e-05,-6.82259252098305e-05,-0.00247356126965137,1.1331268595427e-05,-0.00166599544203905,-0.000911775224599509,-1.46692046607555e-05,-2.27307353117823e-05,-0.00149008767128045,2.3021008878743e-05,-0.000950495288804198,-6.20414774603617e-05,-0.000303586165182779
"18:47386307:A:C",-1.27803761511558e-05,-0.000174548586442391,-1.27803761511558e-05,0.0948619878543999,6.35576771124136e-06,1.86522559362245e-05,-7.28243810517171e-05,9.66249039002776e-07,-0.000649311625431359,-4.60167472322581e-05,-0.000174548586442391,-0.00072412744175665,-3.66216099534356e-05,-0.000122050023994014,1.70845784310814e-05,-1.17892195010683e-05,-1.58317910168293e-05,-9.54384376861128e-05,-0.000143318046416319,-0.00020132723747146,-0.00184516986836503,-0.00241272124120506,1.70845784310814e-05,-4.74116178219575e-05,6.35576771124136e-06,9.75585167406479e-06,7.22210661852074e-06,-0.000158756153918027,5.47820117802189e-06,1.85122446705321e-06,8.07742992314786e-06,-0.000788376415680858,-0.000107697005572227,-1.25021086727628e-06,1.38260418767189e-05,-3.78384310923963e-05,-2.50790646072474e-05,-0.000138892713748007,5.33644668871958e-05,-2.73349665125266e-06,-0.00237104081209338,0.000115899874194803,6.35576771124136e-06,-2.40358586021117e-05,-7.53078802873119e-06,2.61194881687743e-05,-7.53078802873119e-06,0.000339759052751631,-0.000138892713748007,-0.00377434973988144,-0.00167468312776808,-0.000788376415680858,-0.000274653149666904,0.000116554616742093,-2.73349665125266e-06,-8.16011479960466e-05,-0.00955769894880198,-2.13358779834749e-05,-9.02941002678403e-05,-0.00045646100807506,3.38017912993038e-05,-0.00211095158334462,-3.90195178852082e-05,-3.44687265085852e-05,3.68850979270974e-06,-2.84304647308886e-05,-0.00254792270008597,7.22210661852074e-06,-0.000492613452435009,9.75585167406479e-06,3.51796316273578e-05,3.65225144252079e-05,-3.66819194308476e-06,1.58872073416916e-05,-0.00041282368418738,-1.16034745714089e-05,-0.00205884954622171,-0.000548504599702682,-0.00203887475879228,5.16381796451526e-05,3.51796316255815e-05,0,-0.00434558379851069,-2.72985728964059e-05,-7.72170938496686e-05,-8.66499822427258e-05,5.60975201766567e-05,-1.17892195010683e-05,3.51796316273578e-05,-0.00152163175056685,8.07742992314786e-06,2.4625905441944e-05,-0.00173368396350693,-0.0010508143449961,-0.000112119287277501,-0.00160016013233832,0,-0.00465502151811403,-3.428595459809e-05,-0.000157671880735677,0.000125431273031218,-0.000175146489456601,-0.00250965338684939,-0.000299109738961079,9.75585167406479e-06,-6.98838313537564e-05,6.04062958586837e-05,-4.02425884482582e-05,3.68850979270974e-06,4.58918955814624e-06,-0.00016801963591373,2.2311455641244e-05,-0.000131844869676989,-0.00166188500579079,0,-0.00059636928520046,-0.00245550817605533,8.92194438861793e-06,3.68850979270974e-06,-1.37843575265251e-05,2.46259054428322e-05,-3.3081310597538e-05,-0.00238495171898023,6.35576771124136e-06,-0.000156392470723965,-1.58317910168293e-05,0,1.38260418767189e-05,0,-9.19503143226308e-06,-2.61815351327854e-05,-0.000157671880736565,-0.00168101680416921,-3.19182469832313e-05,-0.00191148760184312,-0.002033495512066,1.70845784310814e-05,-2.61815351327854e-05,-0.000110570885072825,0,1.85122446705321e-06,-2.11929402720301e-05,5.50250949880038e-05,-9.19503143226308e-06,-0.0017376931706492,-0.000235886559817544,5.94095490109581e-05,-0.0022537439447996,-0.000145041332448415,0,-0.000178266621039924,-5.49176998942968e-05,-1.58317910168293e-05,6.35576771124136e-06,-5.09988544594719e-05,-8.99621857897159e-07,-4.84160678535517e-05,9.14143099883802e-07,3.44951652939685e-05,0,-0.0025608303965754,-0.000227263138487643,-0.000896303799510889,2.75752979668198e-05,-0.00150197667870966,1.54763663440249e-05,-0.000253623133958492,4.32956855140887e-05,-6.06114575392169e-05,2.75752979668198e-05,-6.32408997072176e-05,-4.46420897901589e-05,-0.000287511590550515,9.75585167406479e-06,-0.000185387637468892,2.2311455641244e-05,1.12679391515158e-05,4.58918955814624e-06,-0.00127455576627611,2.89947389155998e-05,2.89947389155998e-05,-5.57424675395879e-06,-7.13209557812178e-05,5.39251187232637e-05,1.62856359535724e-05,-0.00247199702294587,4.78576593128111e-05,-5.77654642182068e-05,9.75585167406479e-06,-3.3081310597538e-05,0,-1.58317910168293e-05,-0.00379128081427993,7.22210661852074e-06,-0.000182659207362157,0.000124148082218944,-0.00123956776878398,-5.57424675395879e-06,0.000322765560832217,3.58553596404576e-05,-0.00184449024446298,1.29845720779898e-05,-7.42536785240944e-05,2.68520252788562e-05,1.21319449224444e-05,6.44711084687444e-05,-0.000164685302398659,-1.58317910168293e-05,-2.458730455146e-05,-0.00130695446305484,-0.00247020402848985,-0.000149475319622283,-0.00155944323271928,-3.428595459809e-05
"18:47388700:G:C",5.92856881009851e-06,-0.00158719001074648,5.92856881009851e-06,6.35576771124136e-06,0.179490617580615,-9.58169582432333e-06,-0.00215000741888804,-0.0033484779925903,-0.0016860176231237,1.9209386685759e-05,-0.00158719001074648,3.78027048641982e-05,1.60028430382653e-05,-0.00260364842098326,-8.80425685600983e-06,5.50463292636749e-06,-0.00450329378169378,-0.00241950843891292,-0.00168999700075911,-0.00140680400099757,-1.14567640974172e-06,-1.2232381790156e-05,-8.80425685600983e-06,1.97064875084862e-05,6.2070843197759e-05,-4.87614766786493e-06,-3.67455191074839e-06,-0.00163743110722603,-2.85644279873765e-06,-1.17794829890272e-06,-4.07845553240804e-06,3.41628060018806e-05,-0.00252679205338247,-0.00341412227187021,-7.20770652407055e-06,5.23006375807711e-06,1.12795477162919e-05,-0.0016477886312094,-3.03151406404467e-05,1.23522016881594e-06,-8.41039028998125e-06,-0.00116056267658315,6.2070843197759e-05,1.02873413636573e-05,3.36157746172461e-06,-0.00354369654224573,3.36157746172461e-06,6.35576771124136e-06,-0.0016477886312094,1.26093372072589e-05,-2.00940815213713e-05,3.41628060018806e-05,-0.00163917910018174,-7.9570180354871e-05,1.23522016881594e-06,-0.00211717755724994,-0.000337477243361306,-0.0016610422402632,3.36853081810418e-05,3.61388839849042e-05,-1.82787060287737e-05,-0.00184917962359066,1.68999694221128e-05,-0.00169687726266066,-2.02434457818867e-06,1.26093372072589e-05,-0.00164564893917785,-0.00312680246919683,4.82768550513768e-05,-4.87614766786493e-06,-1.90152092685025e-05,-1.97378469808385e-05,1.65363661164264e-06,-0.00158117392286705,-0.000279879984645071,5.12599105295664e-06,-0.00179070784662372,-0.000525868506135119,-0.00176038434222914,-2.93204471732977e-05,-0.00102466469661167,0,-0.00174038177958646,1.21628615339375e-05,-1.50837300241236e-05,-9.25118256382973e-05,-3.1907035006995e-05,5.50463292636749e-06,-1.90152092685025e-05,-0.00155847339224024,-4.07845553240804e-06,-1.30130628201997e-05,2.81632690324329e-06,5.25832694817652e-05,-0.000868053993320572,-0.00360988725265354,0,-0.00513084518956841,1.51177623033405e-05,-0.00146467312937126,-0.00319562047150335,-0.00206745871578029,-0.00404815535775871,2.50068447016361e-06,-4.87614766786493e-06,2.8034383324993e-05,-3.51672000560299e-05,1.73530861209414e-05,-0.00268215363962288,-2.44216150324661e-06,-0.00132883290893471,-1.18365816517141e-05,-0.00665701420245135,-0.00194474692766367,0,-2.44216150324661e-06,7.22006821263221e-06,-4.47897512501072e-06,-2.02434457818867e-06,6.35576771124136e-06,-0.00124143500960461,-0.00208006291686313,-0.00419788197026882,-3.26722690680015e-06,-0.00654450624996628,7.22006821263221e-06,0,-7.20770652407055e-06,0,-0.00239665063707584,1.17196056717006e-05,-0.00150939236104808,-4.38837545884141e-05,-0.00212606953246741,-2.02434457818867e-06,-0.00194074810206857,-8.80425685600983e-06,1.17196056717006e-05,-0.00298002632746286,0,-0.00197003889877312,-0.002278372745665,-3.12798770645273e-05,-0.00239665063707584,-0.00400332015785665,-0.00487166068969636,3.79037801865323e-05,-0.0030355875320085,-0.00160256074812182,0,-0.00258757076573879,-0.0016329416669576,7.22006821263221e-06,-3.26722690680015e-06,2.14274506831202e-05,4.084350075928e-07,2.05218567197463e-05,-7.49290318680096e-07,-0.00143841922471477,0,-1.18365816526023e-05,-8.25260331538402e-06,-7.6121570797838e-06,-1.45320244060443e-05,7.65722661366652e-06,-8.01303759523364e-06,-0.00330621789778096,9.14306857779934e-07,-7.31312929982408e-05,-1.45320244060443e-05,2.57412780682031e-05,-0.00214311008574875,-0.00340504860035296,-4.87614766786493e-06,-0.00155426959096072,-1.18365816517141e-05,-5.97250475564692e-06,-2.44216150324661e-06,-0.00165630015401153,-1.52710110139509e-05,-1.52710110139509e-05,2.50068447016361e-06,2.84817992080022e-05,-3.06399824818726e-05,-8.41039028998125e-06,-0.00309526421480211,5.29703787073288e-05,-0.000837026528427209,-4.87614766786493e-06,-0.00222809806141289,0,7.22006821263221e-06,-0.00758108263571344,-3.67455191074839e-06,-0.00295648473878352,-0.000358700789903743,-6.34886974832938e-05,2.50068447016361e-06,5.08393166676058e-06,-1.93782380772944e-05,4.23658809012295e-06,-6.79964320760007e-06,2.93832904620928e-05,-1.41574725454063e-05,-6.38792387253062e-06,-0.000373211274946605,-0.00155691473669783,7.22006821263221e-06,1.08134557610384e-05,-3.66809557839076e-07,-1.30130628210878e-05,-0.00161194590237734,-8.60373685167559e-05,1.51177623033405e-05
"18:47388981:C:T",1.74097365617243e-05,-0.00180533850272102,1.74097365617243e-05,1.86522559362245e-05,-9.58169582432333e-06,0.178534157725635,-0.000813484009327681,-0.00695126925611955,-0.00255167142562573,-0.0012741616028169,-0.00180533850272102,0.000130402916241223,4.90443373193372e-05,0.000150344641607347,0.000493847406078274,1.61806301779421e-05,2.11784200834231e-05,0.000119717373944894,-0.00170041344919092,-0.00108168575918199,-0.000892967185506244,-3.45491024020816e-05,0.000493847406078274,-0.00126097680362847,-9.58169582432333e-06,-1.39172413762267e-05,-0.000483581688615509,-0.00175349535380409,-8.46771511575639e-06,-3.88527000438899e-06,-1.17731500148821e-05,0.000115018952233648,0.000134072234694749,-0.00688561184900927,-2.07883797633812e-05,1.32937857486581e-05,3.38527972099101e-05,-0.001784326859811,-8.08827492173592e-05,-0.00407151721881327,-2.39442834226722e-05,-0.000191402797725893,-9.58169582432333e-06,-0.00113150566452891,9.44004542713373e-06,-3.84737115384226e-05,9.44004542713373e-06,1.86522559362245e-05,-0.001784326859811,3.79148146389952e-05,-5.49170180601521e-05,0.000115018952233648,-0.00102917362941657,-0.000191885148482562,3.4433877154072e-06,0.000103318648397632,-0.00646544804174631,-0.00642956289188135,-0.00125401839671291,-0.000857386671856197,-5.04805406720266e-05,-8.78178445393729e-05,5.19040150201988e-05,-0.00636416341735035,-6.20222274161364e-06,3.79148146389952e-05,-2.51738590479889e-05,-1.06834407045397e-05,-0.000894869285966493,-1.39172413762267e-05,-5.22852327184964e-05,-5.40495657368467e-05,4.61638645976592e-06,-0.00660808992451223,-0.00625335848080599,1.4485234856032e-05,-0.000100465636492686,0.000366505644867843,-8.46771511575639e-06,-7.86005362654052e-05,-5.22852327184964e-05,0,-2.26074503784091e-05,-0.00576924915864474,-4.35607593249898e-05,-0.000905822964114122,0.000180683181477015,1.61806301779421e-05,-5.22852327184964e-05,-4.08003269152246e-05,-0.00736149305052525,-3.65335883172335e-05,7.22731312308156e-06,-0.00530737342966958,-0.000136976998014404,-0.00692943733604601,0,-0.00547597558994362,4.6246318899712e-05,0.000189711511377588,0.000570099163548221,0.000107530809090761,-0.00727326699224129,7.00144534171443e-06,-1.39172413762267e-05,9.12729190805095e-05,-9.29481920080022e-05,5.33576150614223e-05,-6.20222274161364e-06,-7.3412938572659e-06,0.000200858078346577,-3.35397456225905e-05,0.000992133404714046,9.10183450386626e-07,0,-7.3412938572659e-06,2.11784200843113e-05,-1.28510196741871e-05,-6.20222274161364e-06,1.86522559362245e-05,-3.65335883172335e-05,4.20613034712858e-05,-0.00712099858908033,-9.58169582432333e-06,0.000992133404713158,2.11784200843113e-05,0,-2.07883797633812e-05,0,-0.00618765914649178,3.51919562984193e-05,0.000189711511375812,-0.00011315073911522,4.21142108448791e-05,-6.20222274161364e-06,0.000448494610798988,-0.00616157613354584,3.51919562984193e-05,0.000245650211919468,0,-3.88527000527716e-06,2.77445963510203e-05,-0.000138812286324175,-0.00618765914649178,4.75357675977506e-06,0.000204193735591218,0.000129352409246941,-0.000819750477012882,0.000176063396688519,0,0.000164706939215442,-0.00618459429717788,2.11784200843113e-05,-9.58169582432333e-06,6.72521058593389e-05,1.1353983699891e-06,6.42261848033954e-05,-2.70694565429608e-06,-5.13880175718739e-05,0,-0.00638363190002345,0.00016530960913741,-2.18521670278804e-05,-0.000166098550730354,2.24625203202322e-05,-2.29040689534443e-05,-0.000925114708759445,-6.77015976666695e-05,7.8388491773218e-05,-0.000166098550730354,8.25894163147822e-05,5.71989812874207e-05,-0.000929553224485069,-1.39172413762267e-05,0.000217749016366398,-3.35397456225905e-05,-1.75236590607142e-05,-7.3412938572659e-06,-0.00102312217862011,-0.000782939404624372,-4.22266854833708e-05,7.00144534171443e-06,9.29065519716943e-05,-8.16259744720327e-05,-2.39442834226722e-05,-4.86340897554172e-05,-7.11841947031999e-05,-0.00458143947826795,-1.39172413762267e-05,4.20613034712858e-05,0,2.11784200843113e-05,-0.0010682716934296,-0.00785076162355569,-0.00121178363277252,-0.000210050031616227,-0.000525987520098248,7.00144534171443e-06,1.49647211040715e-05,-5.31723590713185e-05,1.19340072926022e-05,-1.97125047955993e-05,9.62273943070358e-05,-0.000353144882878631,-1.86243351363302e-05,-0.00010574672995034,-0.00521054508145546,2.11784200843113e-05,3.18661601141912e-05,-0.00225650737679484,-3.65335883181217e-05,-0.00527871184903272,8.35352183781168e-05,4.6246318899712e-05
"18:47390805:C:T",-6.6858912848744e-05,-0.00304454489794637,-0.00359243022475297,-7.28243810517171e-05,-0.00215000741888804,-0.000813484009327681,0.339334612466816,0.000204331195688745,-0.000374250223857064,-0.00289098289084588,-0.00304454489794637,-0.000137616895839798,-0.000190999673835179,-0.00214494717897562,-0.00286885717131646,-6.09792478654114e-05,-0.00259198268529115,0.000702953146896945,-0.00268327656118572,-0.000154408464283939,-0.000417740835907843,0.000108823259853175,-0.00286885717131646,-0.00288865843896957,-0.00215000741888804,4.87700451756723e-05,-0.00149649346985914,-0.00286302862474663,2.33447721598168e-05,-1.10170175382507e-05,-0.00201235519402854,-6.1308152185191e-05,-0.000713329753541103,0.000152134173910135,-0.000582436072008363,-0.00127656328926662,-0.00120644465663045,-0.00277384213695608,-0.00134454435689868,-0.000561356626913145,7.81681844470583e-05,-0.000984806225346802,-0.00215000741888804,-0.00522514003533114,-0.00173185367196105,-0.00613910137580298,-4.78818298992323e-05,-7.28243810517171e-05,-0.00277384213695608,-0.00122012708047237,0.000183007138376823,-6.1308152185191e-05,1.46918215295777e-05,-0.00277984219725091,-0.00263723767566759,-0.000516991850209259,-0.00302372987582933,-0.00741558497662798,-6.81637058326245e-05,-0.00238816154387012,-3.74471111097563e-06,-0.00046125581681089,0.000104605331900487,-0.0079583214990091,-0.00189929031957714,-0.00122012708047237,-0.000615240210893653,-0.0057395732723533,-0.00245425686163925,4.87700451756723e-05,-0.00149790101406655,0.000179058425177736,-2.17582835224661e-05,-0.00830917307472312,-0.00639207653539664,-0.000263320458192773,-0.00397885628519479,-0.000620473937054111,2.33447721598168e-05,-0.000170432963877865,0.000170989297875401,0,-0.00369665626523563,5.30009363446382e-05,-0.0015253775983215,-0.00878541166444924,-0.000744038533960989,-0.00117996421373423,0.000170989297876289,-0.0019603617667121,-0.00338666549487332,-0.000386665864941627,-0.0017752956319832,-0.00211990022391939,-4.2692848513326e-05,-0.00323025909780128,0,-0.00902340327172624,-0.000521974147207338,-0.00251042741854057,-0.000358211643456396,-0.000514831655475056,-9.83143708523926e-05,-0.00175643808122405,4.87700451756723e-05,-0.000519640121602549,-0.000114746695900614,-0.000212656692069935,-0.00223125397317414,-5.92179655090064e-06,-0.00302400142705572,-0.00315282079521229,-0.00131277595327184,-0.00113028957985684,0,-0.00194687237990365,-0.00154559716936209,-0.0018135239165904,-5.95229426103572e-06,-7.28243810517171e-05,0.000118043861092154,-0.000840854598070706,-4.0111355583683e-05,2.85775307373726e-05,-0.000892043557824351,-8.50201718787247e-05,0,7.95910537743083e-06,0,-7.74700598853428e-05,-0.00131007828325469,-0.00352378090352357,-0.000926332332157109,-0.00292153838212172,-0.00189831327157108,-0.0026682514335401,-0.0105261741506943,-0.00131007828325469,-3.02951733077705e-05,0,-0.000233596430756045,-0.00268766920523422,-0.000629932121951171,-7.74700598853428e-05,-0.00477921353916422,-0.000535281223792872,-0.00535409303160428,-0.000536352872599899,-0.00373879232364249,0,-0.000656255512666348,-0.00697329069256813,-0.00154559716936209,-0.000837407045063188,-0.00054503542040063,-5.32323991464523e-06,9.60113636381266e-05,-0.00358722197559924,-0.00170206813675744,0,-0.00981425108329859,-0.00340921435298736,6.84280168838924e-05,-0.00127637211608267,-0.000112896092020698,7.33335967115778e-05,-0.00137278509074301,-0.000279634518412841,-0.000384445453484261,-0.00127637211608267,-0.000711466416294826,-0.000912690678902095,-0.00159573475817076,4.87700451756723e-05,-0.0049449724935311,-0.000708423832425531,-0.00190784683172396,-0.00194687237990365,-0.00537828913389182,-0.00127616394408392,-0.000238802002209049,-0.00175643808122405,-0.000372288232431295,-0.00130264202142882,7.81681844470583e-05,0.000154128956557642,0.000236566207611588,-0.000386454013119319,4.87700451756723e-05,-0.00121871813353547,0,-8.50201718787247e-05,-0.0008520530655165,-0.0154460815482365,-0.00191095533670271,-0.00120157614010008,0.000267209159608761,-0.00175643808122405,-5.518358881762e-05,-0.00233110576937001,-6.82708683195088e-05,-0.00198545510505088,-0.00105759013146223,-0.00336988842140862,-0.000639243240252441,-0.00211457817322902,-0.00486525092765699,-8.50201718787247e-05,-0.000325683681159816,-0.00100367288556136,-0.00207982350405089,-0.00501588256460028,-0.000387714794673144,-0.000521974147207338
"18:47391025:T:G",0.000129205216054196,-0.00221431141324668,-0.00194541910506718,9.66249039002776e-07,-0.0033484779925903,-0.00695126925611955,0.000204331195688745,0.40159750636597,-0.00131123045682946,-0.00289235138825994,-0.00221431141324668,-0.00605879990953273,-9.8578723418008e-05,-0.00148599395667581,-0.00375576111048215,0.000123579290058018,-0.00380504122686975,-0.00103797063898625,-0.00282895884494661,0.00019747961005212,-0.00161240654999695,-0.00046382866737904,-0.00375576111048215,-0.00276353395543083,-0.0033484779925903,-0.000115544266845902,-0.00322532845874157,-0.00251489924477966,-0.00290394583120612,-0.00268884917884282,-0.00365977114352134,-0.00584317587029304,-0.00132814388408509,0.00701121029964025,-0.00630508947382324,-0.00432595736372487,-0.00158724456408876,-0.00270402294884242,-0.00253547794834574,-0.00263100724975374,-0.000219669030239622,-0.000103843061085129,-0.0033484779925903,-0.00210028881758184,-0.00241778208757015,-0.00131391139874193,-0.00103958146629779,9.66249039002776e-07,-0.00270402294884242,0.000268489546452422,-0.000964146292514734,-0.00584317587029304,-0.000644287955948286,-0.00181857263967444,-0.00263100724975374,-0.00438801201989492,-1.61034258390202e-05,-0.00398449694691916,-0.000537138876227417,-0.00143923954731795,-0.00407887823449382,0.000654013111641483,-0.00521799724104977,-0.0039060222989713,-0.000163251013968413,-0.00226338257326031,-0.00650053113349403,-0.000102651371737927,-0.00118713583084284,-0.000115544266845902,-0.000801735365304701,-0.00115456530447577,-0.00177425074650017,-0.000824547235231066,3.16618590825435e-05,-0.00194550270012606,0.000492052485947525,-0.00284433047228916,-0.00471039641812165,-0.000130445986845196,-0.00192689334469165,0,-0.00204957177866749,-0.000294605587499497,-0.00032703000758616,-0.00620347691170453,-0.00192798509881165,-0.00486935069558214,0.000741833872360154,-0.000565589894505614,-0.00365977114352134,-0.00108390035572903,-0.0021935152361463,-0.000388350031395035,-0.00369352224422936,-0.00017493360821863,0,-0.00781547591875853,-0.00176319359569188,-0.00221876672035304,0.000469493129753307,-0.000491966945100231,-0.000112288774032798,-0.000871335559833319,-0.000115544266845902,-0.00328218933232893,-0.00268022162382753,-0.00165038348355218,-0.00524175607264077,-0.00132177627779662,-0.00163214956860358,-0.000189409280234365,-0.000333592657468795,-0.000352276400941598,0,-0.000313846630463743,-0.00208168525182018,-0.000111294826251829,-0.000514132521537647,-0.00221684090588603,-8.10708073917255e-05,-0.00112430255308826,-0.00128436797690057,-0.00152722875491662,-0.000584596188733411,-0.00208168525182018,0,-0.00020499875856661,0,-0.000351938016547315,6.35562855331173e-05,-0.00388581133962518,-0.0017722956005839,-0.000327373012816601,-0.000163251013968413,-0.00468852169673806,-0.00319741739247092,6.35562855331173e-05,-0.00745879526846505,0,-0.00213949838016525,-0.000153594527862566,0.00121663782601722,-0.000351938016547315,-0.00187257328016521,-0.00694622464124173,-0.00230391366559246,-0.00129851234926281,-0.00232480288855808,0,-0.00718265438836996,-0.00336196037446213,6.50526265744134e-05,-0.0033484779925903,-0.0041988161472144,-4.82818626981185e-05,-0.00295789741412289,-0.0035865750006483,-0.00236540911869731,0,-0.00398583326404811,-0.00400397596863522,-0.000100316195195127,-0.00010823114197489,-0.0075411664390721,-0.00329024636742314,-0.00188169139914507,0.000271369659971654,-0.000554368747219591,-0.00010823114197489,-0.00469553350422469,-0.00280824129492441,-0.00157519084655933,0.000231029913553726,-0.00179950494518621,-0.000386159377833373,-0.000759952133159381,-0.00282466546892834,-0.0110790860434844,-0.000355937923916194,-0.000355937923916194,-0.000306897747972101,-0.000360134119828714,-0.00150630966329235,-1.93378590465088e-05,-0.000825947322097953,0.000442046692329612,-0.000268668193134758,0.000231029913553726,-0.0030921623796365,0,-0.00208168525182018,-0.00253725127409687,-0.00739645393915467,-0.000198133394774924,6.85644252227391e-05,-0.00194505787811217,-0.000306897747972101,0.000118016154305955,-0.00350483506374122,-0.000131993226628602,-0.000711587990328333,-0.00682095368778945,-2.43362371232791e-05,-0.00148893947125384,-0.00751785652513881,-0.00741756601280485,-0.00208168525182018,-0.000708591709052797,-5.04436454669133e-05,-0.00209763395538864,-0.00795831693999371,-0.000135954446282227,0.000355525990223704
"18:47393652:G:A",-0.00159872855399001,-0.000151549875054169,-0.00306081605471409,-0.000649311625431359,-0.0016860176231237,-0.00255167142562573,-0.000374250223857064,-0.00131123045682946,0.565211073170588,-0.00145314854841683,-0.000151549875053281,-0.00201817631947243,-0.00248469552244845,0.000345840796384334,-0.000382774222389415,-0.00141057396473698,6.10196857895318e-05,0.000103866604655334,-0.00046989385812557,-0.00329151624729018,-0.00405745428204973,-0.00145422243975712,-0.000382774222389415,-0.00139723254185187,-0.00168601762312282,-6.51559618907172e-05,-0.000132676773771934,-4.96104074487747e-06,-0.000108304406379212,-8.23142753088035e-05,-0.00170683335218502,-0.00172046770279799,0.000386250071336747,-0.00105549587136622,-0.00322124240252997,-0.00762814803061751,-0.000683714170279792,-0.0005057282097094,-0.000401863805095992,1.08519969410636e-05,-0.00050986354382232,-0.00128855535001371,-0.00168601762312282,-0.00341611278678666,-0.000383724537063479,-6.01391867940393e-05,-0.00103173453290495,-0.000649311625431359,-0.0005057282097094,-9.27457748787219e-05,-0.00244944918888113,-0.00172046770279799,-0.00452555815263356,-0.00117553146841454,-0.00221153367952809,-0.00677942947086763,-0.00604750308835422,-0.00500729047558002,-0.00485591283462838,-0.00749312831400273,-0.00314991050117452,-0.00122868859152492,-0.00136285545546766,-0.00399399541477274,-0.000838696684603235,-0.0025462328368322,-0.000738970082953649,-0.00144125668323714,-0.0064689829218576,-6.31390227967543e-05,3.01719173254611e-05,-0.000699128411549843,-0.00486178157394779,-0.00469571097031629,-0.00133776143741748,-0.00160648327080271,-0.00252541337134327,-0.0084324177969286,-0.00306956001427494,-0.0018393735450779,-0.000369340612018654,0,-0.00546060647838997,-0.00421070008674906,-0.00475762588236517,-0.00325706148330296,-0.00377619764508097,-0.0053409532500801,-0.000114313637931573,-0.00296611403613722,-0.000248693068757078,-0.00326491899750625,-0.00187346650665488,-0.00191835880131519,-6.99450245775779e-05,-0.00329259840961926,0,-0.0027916212799397,-0.000517143447668289,-0.00215280368702908,-0.00444370769941482,-0.00605013074213945,-0.00606224800469457,-0.00228883446441674,-6.31390227967543e-05,-0.00194942012390609,-0.00171271949328045,-0.00291782872346769,-0.0041817322759421,-0.001003382341767,-0.00323315790314282,-0.00252846701785181,-0.00324548325758212,-0.00429714462585329,0,-0.00028568957745545,-0.00491675760946819,-0.00151735019709331,-0.000508661687632639,-0.0063653951774576,-0.000283398443559513,-0.0030194596843427,-0.00650252266752371,-0.00168601762312282,-0.00261056513760316,-0.00274200641098599,0,-0.000144161182843661,0,-0.0017499697505361,-0.00321999045089161,-0.00301955570903534,-0.000482542221467597,-0.00787719444651014,-0.000461924596912411,-0.00268688699851793,-0.0032998274497924,-0.00321999045089161,-0.00278469802865677,0,-0.0063813551314631,-0.00675918106009199,-0.0028811044739836,-0.0017499697505361,-0.00473626876177224,-0.00564086206543379,-0.00535571114358957,-0.0117220869465555,-0.00297617383373394,0,-0.002788703079319,-0.00590568810425918,-0.00389096826306634,-0.000371090293229237,-0.00328964539383581,-0.00432433088773898,-0.000456412526911087,-0.00224518704580756,-0.010708302777819,0,-0.00689536798539159,-0.00284767847652212,-0.00240477944170969,-0.00111320719075803,-2.17189213902458e-06,-0.000429367044154638,-0.00858540004403618,-0.00816791677963957,-0.0090382229263164,-0.00111320719075803,-0.00259192409221054,-0.00873158633010496,-0.00762305622382087,-6.51559618907172e-05,-0.00345458272161769,-0.000555709163832852,-0.00750586854925661,-0.00016320531799785,-0.00478162363630297,-0.000201083800090096,-0.000184520836531199,-0.000126200256815423,-0.00463389489649302,-0.00158460459680132,-0.00264697449259277,-0.00126863201118521,-0.00031881638290443,-0.00113314195536418,-6.51559618907172e-05,-0.00813764133211015,0,-0.00274200641098599,-0.012375554708389,-0.00403893401451239,-0.00639082128971324,-0.0029384115537141,-0.000496691126381954,-0.000126200256815423,6.37710951281178e-05,-0.00123491045684876,5.34346524219131e-05,-0.010005467870096,-0.00171954799000762,-0.00967282674891745,-0.00356683502681054,-0.00929580817167963,-0.00155883519377786,-0.00274200641098599,-0.00416043016742229,-0.0046590138975926,-0.00306297131098976,-0.00183612367364239,-0.00269697005805325,-0.000517143447668289
"18:47396831:A:G",-0.00136553395100059,-0.000817145245286532,-4.23985205264543e-05,-4.60167472322581e-05,1.9209386685759e-05,-0.0012741616028169,-0.00289098289084588,-0.00289235138825994,-0.00145314854841683,0.257894256375319,-0.000817145245286532,-0.00265786163437021,-0.000122989904495441,-0.000437963670917974,-0.00176135806158317,-0.00117020377992016,-5.34226267605575e-05,-0.000338880813996134,-0.00065258688199421,-0.00148370894777061,-5.03515031988755e-05,-0.000129012497676051,-0.00176135806158317,0.00261971141018424,1.9209386685759e-05,3.11121879317255e-05,-0.00210512656204465,-0.000733451607406899,1.61190185270499e-05,3.26734739175549e-06,2.52505238220735e-05,-0.00287708765470551,-0.000383905479016455,-0.00305682676977792,4.20576160546915e-05,-0.00414632577475338,-8.37772788484514e-05,-0.000664642799629966,-0.00143432721236891,-0.00262517691644781,-0.001863356789646,0.000329389166465077,1.9209386685759e-05,0.000901404043379905,-2.68413362904951e-05,8.1218110240755e-05,-0.000283458333923292,-4.60167472322581e-05,-0.000664642799629966,-9.60929068698491e-05,-0.00103471155113954,-0.00287708765470551,-0.000487052931878118,0.000331504789881087,-9.6825481703533e-06,-0.00432403585262886,-0.00340007168177658,-0.00211331825837568,0.000757722583334619,-0.000538333176713923,0.000104025974544619,-0.000275925064401328,-0.00251863731655799,-0.00223810360958687,9.79343225093743e-06,-0.00233134957270575,-0.00414684052333492,2.22528817035439e-05,-0.000612203330028205,3.11121879317255e-05,-0.0015541781825732,0.000113224293823322,-3.76825979007123e-05,-0.000578721457713982,-0.00215648739888108,-4.79671944448867e-05,-4.76594916545281e-05,-0.0023966865860241,-0.00203751760646309,0.00015675794197989,-0.00133969595953687,0,-0.000178566592013318,-0.000341087336077628,-0.00353681090831603,-0.00221765869455703,-0.00357683899692951,-0.00117020377992016,-0.000180835662261458,-0.00334183033923363,2.52505238220735e-05,7.60951120977182e-05,-0.00129632070268926,-0.000516237944009124,-0.00114795679734137,-0.000464852840331709,0,-0.00212853819767922,-0.000114339460972168,-0.000104197286840524,-0.000123429134663677,-0.00720865544499372,-0.000975829117614069,-0.00387273285526568,3.11121879317255e-05,-0.000260841220055319,-0.00262953645874209,-0.000207175871150156,-0.00191416799442834,-0.000602352106943371,-0.000141594172818671,-0.00208899904525595,-0.00565294249137605,-1.04241052296672e-05,0,-0.00434414453422427,-0.00152697083419717,2.82033046064001e-05,-0.00191416799442834,-0.000340551493263952,-0.00349616863164304,-0.00304886928818249,-0.00016591957143941,-0.00215365794339117,-0.00564757257456749,-5.34226267605575e-05,0,-0.00207696621094122,0,-0.000556771284582425,-8.78183848156411e-05,-0.00112599786388934,-0.00249558985357545,-0.0010003124133835,-1.24728583701383e-05,-0.00169057864422939,-0.00176135806158317,-8.78183848156411e-05,-0.000225696926304586,0,-0.000443080536098428,-0.00130580610716091,0.000167921343293465,-0.000556771284582425,-0.00469440564138246,-0.00135934078962752,7.52103949643868e-05,-0.00317626720529862,-0.000938503473774333,0,-0.000418018580901958,-0.000295938304633037,-5.34226267605575e-05,-0.00215365794339117,-0.000173427034709128,-3.17903397295538e-06,-0.000863368031377654,-0.00274457609803047,-0.000875559724703656,0,-0.000615542301265037,-0.000567783276189004,-0.00198453711794855,8.61880287308381e-05,-0.00154920108938317,-0.00226850616219121,-0.00133571536072896,-0.000500184175560747,-0.00080142441175024,8.61880287308381e-05,-0.000216485888732798,-0.00477909439633439,-0.00139758013625402,3.11121879317255e-05,-0.00108689247759219,-0.00452916064646569,3.3082508315907e-05,-0.0019647776550098,-0.00281920416219794,-0.000286573496082632,9.10114170995513e-05,-2.69297610246966e-05,-0.0016075557391293,-0.00279717711025107,5.06236770965174e-05,-9.13930871275781e-05,-0.001223513403521,-0.000195601247242827,3.11121879317255e-05,-0.00498947958457752,0,-5.34226267605575e-05,-0.00404389862949461,-0.00210512656204465,-0.00760117654235071,-0.00982711305217787,-0.00645420305175914,-2.69297610246966e-05,-3.53253793488051e-05,-0.00145334375520711,-6.87836337407433e-05,3.91127362622257e-05,-0.00025531713969329,8.37217863525197e-05,-5.30740164386145e-05,5.46562853545041e-05,-0.00292726022645251,-5.34226267605575e-05,-0.00146632712411687,-0.00331680284371405,-0.00194507312878756,-0.00272285584385035,-0.0020736082716617,-0.000114339460972168
"18:47398787:G:C",0.000394244905264962,0.00481417907667581,0.000394244905264962,-0.000174548586442391,-0.00158719001074648,-0.00180533850272102,-0.00304454489794637,-0.00221431141324668,-0.000151549875053281,-0.000817145245286532,0.341690465752061,-0.000430789253040409,-0.00136849241127113,-0.00176326871915666,-0.0023154216818444,0.000568454049213685,-0.00309731213495468,-0.00141578309093138,0.00399278483041865,-0.000452496135753044,-0.000127109974260797,-0.00855396610894399,-0.0023154216818444,-0.000837950356439521,-0.00158719001074648,-0.000961415474489691,-0.00273969132381069,0.00615174276089103,-0.00148580864411318,-0.000200375487253268,-0.00143935154703811,-0.000276320931135388,-0.00157769351917114,-0.00214419516642117,0.000122213724750075,-0.00210020209598305,-0.00086338013922127,0.0068751734157475,-0.000840711366409508,-0.003339933639805,0.00016516014451895,-0.00143076995730507,-0.00158719001074648,-0.000565354023398079,-0.00029128648612442,-0.00212152761202677,-0.000125145956454631,-0.000174548586442391,0.0068751734157475,-0.00167323533926655,-0.00331158620674632,-0.000276320931135388,-0.000471167567744235,-0.00100789021200143,-0.000604583939171732,-0.000595226577249086,-0.000550739344168161,-0.0099928221980301,-0.000902505614532423,-0.0184297601104926,-0.00159355073847678,0.00012027654834057,0.000205839322325652,-0.00983812691939878,-0.00138522158120846,0.000312901673057198,-0.00366427658121626,-0.00273969132381069,-0.0193823627799263,0.000110090539532592,-0.00466388792971539,-0.00170915192643317,-6.08322849471321e-05,-0.00475713029883096,-0.00290990935664803,-0.000372993768784191,-0.000525125582930386,-0.00574353753471923,-0.00148580864411318,-0.00188872909525895,-0.00175320928839451,0,-0.00480682496778595,-0.00307903328649317,-0.000222660353433213,-0.00907639334740917,-0.00106161513298986,-0.000744749408768897,-0.00196769151142906,-0.000261044364822993,8.16450132363755e-05,-0.00162852154970317,-0.00316529427451506,-0.00160960529968657,-0.00447814056716744,-0.00143485391320608,0,-0.00566344169668964,-0.00034815837706148,-0.00124342807112043,-0.00406269052364649,-0.000755844068383915,-0.00339703983385142,-9.25356552929912e-05,0.000110090539532592,-0.0103441131693565,-0.00185782114785038,-0.00286961600238556,6.99582294139134e-06,2.2346694704467e-05,-0.00023244303997938,-0.00329755133626453,-0.00450402582428966,-8.98885134033023e-05,0,2.2346694704467e-05,-0.00114998411112754,-0.00118910945869199,-0.00138522158120846,-0.000174548586442391,0.000250603883015899,-0.000109320944353009,-0.00127784859855051,-0.00280041933124853,-0.00436925355277706,-0.000629202412757657,0,-0.00146528494509468,0,-0.000827068026834077,-0.000630339018184323,-0.0003324670516065,-0.00195493935720403,-0.00125998587708587,-0.00138522158120846,-0.000174503810574489,-0.0015938290030455,-0.000630339018184323,-0.00333939625078994,0,-0.0114113783966809,-0.00128872281219294,-0.0014056468813255,-0.000827068026834077,-0.00713162993157823,-0.00222512350968973,-0.000273156018620213,0.000578742329369497,-0.000329403664510508,0,-0.0033442993102577,-0.00387121971789028,-0.000401392587221494,-0.00158719001074648,0.000606033156807406,-1.48971577491608e-05,0.00014575707939013,-0.000207477078690843,-0.0053191675936759,0,-0.000478752037063046,-0.00243957644503912,-0.00257410942836511,0.000303482765104945,-0.0024265228426783,-0.00251078809065675,-0.00151626973667218,-6.77540801561349e-05,-0.00323100046146596,0.000303482765104945,0.000648748778540487,-0.000157273760490462,-0.0023600079688042,0.000110090539532592,-0.000469849069502537,-0.00141542697066477,-0.000116625994171393,-0.00288122952394243,-0.0105011893806481,-0.000727254896777829,-0.00318560592228767,-0.000259255698760619,-0.000517525374911898,4.20771218765381e-05,-0.00242909629573784,-2.71336733419503e-05,-0.000494783232501739,-0.000771362629475192,0.000110090539532592,-0.00019225009059376,0,-0.000629202412757657,0.000178978840896349,-0.000972498967175994,-0.00893802913205421,-0.0039156778231062,-0.000190901553914991,-0.000259255698760619,-0.000126221546535632,-0.00212104465760543,-0.00146651897452266,-0.00141721880868051,-0.00152212519785966,-0.00198432376832081,9.25521770600568e-05,0.000264196262811822,-0.00110512253146755,-0.000629202412757657,0.000700927204459134,-0.00152761789693345,-0.00331259087036351,-0.000961932152282685,-0.00399891636853411,-0.00131789270914062
"18:47399291:C:T",-9.45401745244823e-05,-0.000430789253040409,-9.45401745244823e-05,-0.00072412744175665,3.78027048641982e-05,0.000130402916241223,-0.000137616895839798,-0.00605879990953273,-0.00201817631947243,-0.00265786163437021,-0.000430789253040409,0.232462861836856,-0.000264260088161272,-0.000181656156718724,0.000115763267521274,-8.58705812785132e-05,-0.000121209506214193,-0.000103452607577381,-0.000286417695229524,-0.000686909018540849,-3.45015747802435e-05,0.000149791427325852,0.000115763267521274,-0.00267916582675554,3.78027048641982e-05,6.88135511230925e-05,4.57004251970261e-05,-0.000356431390869716,2.98052660463455e-05,-3.22034888089462e-06,5.35002771977489e-05,0.00376409717864501,-0.000127017023801912,-0.00622062301026727,8.53603804831238e-05,-0.00340973188500193,-0.000183265902842678,-0.00138286345247174,0.000372324020858628,-2.44016919630496e-05,0.000108305634209493,1.46790641348815e-05,3.78027048641982e-05,-0.00296892252326142,-6.71642114653537e-05,0.000178766107001849,-6.71642114653537e-05,-0.00072412744175665,-0.00138286345247174,-0.000211990998473688,0.000262255661219513,0.00376409717864501,-0.00115058796043677,0.00083627160654931,-2.44016919630496e-05,-0.00203971402161063,0.000550697415092394,-0.000347793629304149,-0.00270858446494682,-0.00549780543901335,-0.00295696948790436,-0.00292883111602027,-0.000503065928511681,-0.000381636778134187,-0.00053351566373383,-0.000211990998473688,-0.0023778736727067,4.57004251970261e-05,-0.00521682545718249,6.88135511230925e-05,0.000242519779808603,-0.00241331932605249,-3.27396525836576e-05,-0.000225349240929873,-0.0041795296843965,-0.000103406879496504,-0.00551193373519876,-0.0052069438724538,2.98052660463455e-05,0.000354099758967941,0.000242519779807715,0,-0.00310388397475769,-0.000670699259952556,-0.00115076647147383,-0.00031955972128106,-0.00374325992634983,-8.58705812785132e-05,0.000242519779808603,0.000155481204973107,5.35002771977489e-05,0.000164462946706578,-0.00671074979933195,-0.010917606931371,-0.00202479510334452,-0.000595861264268471,0,-0.000727653653217253,-0.000244574088299032,-0.00105634304760827,4.77831815572927e-05,0.000645329847623444,0.000543178166445557,-0.00100289091566719,6.88135511230925e-05,-0.00049044184618019,0.000415523913457783,-0.000799348294189706,1.35035965458385e-05,2.17062117249256e-05,-0.000985543278926748,-0.000455760058304833,0.00173992575292026,-3.80023069395108e-05,0,-0.00117236549357713,-0.000121209506213305,6.12040656049473e-05,-0.00112654861051453,-0.000103318482373993,0.000164462946707467,-0.0008062207069095,0.000461610696817161,3.78027048641982e-05,0.00179856669400236,-0.0042847350045836,0,-0.00124912793253085,0,-0.000103537938158205,-0.000596321668983713,-0.00110106227928508,-0.00214163265981515,-0.000241845650508665,-0.00360938721222759,-0.00353407303128073,0.000115763267521274,-0.000596321668983713,-0.00151213804035422,0,-3.22034888267098e-06,-0.000167989862266182,0.000389861370416078,-0.000103537938158205,-7.8279522974789e-05,-0.00493274859660886,-0.000240608962436717,-0.00205272697958847,-0.00111186177686751,0,-0.00111177541948848,-0.00337566710107318,-0.000812296050915151,3.78027048641982e-05,-0.000514633530094066,-8.03374630553577e-06,0.00286020843460566,-0.00380429330731946,0.00023577382768547,0,0.000142313064215749,-0.0149820038749242,-0.00132399246099268,0.000192714589402954,-0.000130326485824561,0.000100753811365983,-0.00690522699202178,-0.000969884345004779,-0.000447107010942638,0.000192714589402954,-0.000477861349819975,-0.00171887322833975,-0.00709614697717376,6.88135511230925e-05,-0.00150190999178701,-0.00122914437902732,-0.00346283536430647,2.17062117249256e-05,-0.00887427186819822,0.000206321406691856,0.000206321406691856,-0.00389862517780326,-0.00270713629205321,-0.00253770273817544,0.000108305634209493,0.000215011249399488,0.00034365097145006,-0.000407422569117522,6.88135511230925e-05,-0.00180318022839199,0,-0.0042847350045836,-0.00879008584720609,4.57004251970261e-05,-0.000669967384867132,0.000244612573364833,-0.00305959625838259,-0.00389862517780326,-7.73076998710209e-05,0.000249181020175016,-0.00796891728974902,-0.0034037032869163,-0.000343635315090296,0.000185783854460553,6.95680756681583e-05,-0.000169847630787423,-0.00119969343572723,-0.0042847350045836,-0.00212180495673131,-0.000103173125425293,0.000164462946707467,-0.00115398823454971,-0.000545196249056801,-0.000244574088299032
"18:47400397:C:T",-3.38395262593494e-05,-0.00136849241127113,-3.38395262593494e-05,-3.66216099534356e-05,1.60028430382653e-05,4.90443373193372e-05,-0.000190999673835179,-9.8578723418008e-05,-0.00248469552244845,-0.000122989904495441,-0.00136849241127113,-0.000264260088161272,0.20283059647979,-0.000312343477157029,4.45399261010948e-05,-3.10912649359452e-05,-4.22897651528586e-05,-0.000246908592097306,-0.00149323660557954,8.10521780580942e-05,-0.0013114656776958,5.96456474744045e-05,4.45399261010948e-05,-0.000126763611855374,1.60028430382653e-05,2.56504295226279e-05,1.84589672036495e-05,-0.00142844491773264,1.35163238939029e-05,3.25475764473282e-06,2.08852489622657e-05,-0.00023160598597638,-0.000277051765324998,-7.54375694782539e-05,3.51925734145553e-05,-0.000469229435444696,-6.59816364070309e-05,-0.00139907225728031,0.000141651291230893,-7.66804448382175e-06,4.22461828621934e-05,-0.00419551870734391,1.60028430382653e-05,-6.69756284130685e-05,-2.10929203650068e-05,6.84414173433012e-05,-0.00117915221345122,-3.66216099534356e-05,-0.00139907225728031,-7.51536895604588e-05,9.85035737901541e-05,-0.00023160598597638,0.000112105216315328,-0.00251970513582744,-7.66804448382175e-06,-0.000212401293106623,-0.0150260324188087,-6.44294102087883e-05,-0.000237054278248827,-0.010771135638822,8.85279871081224e-05,0.000147960591850627,-0.000102249560550938,-9.82341051196656e-05,8.44982146830375e-06,-7.51536895604588e-05,-0.00135325330860336,1.84589672036495e-05,-0.0110705755512344,2.56504295226279e-05,9.25922002572577e-05,-0.00257340489755631,-1.02869572842224e-05,-0.00322334139020342,-0.00690319934761341,-3.24580608266345e-05,0.000166395544077602,-0.000749252734967953,1.35163238939029e-05,0.000136387336357124,9.25922002563695e-05,0,-0.00124813276621616,-7.20580045667774e-05,-0.00133702323853235,-0.00113338767875426,0.000149999149245517,-3.10912649359452e-05,9.25922002572577e-05,6.65795145327053e-05,2.08852489622657e-05,-0.00304571790862962,-2.18527127309187e-05,-0.00532191878336707,-0.00278618099703642,-0.00125776884017448,0,0.000243294210569012,-8.94192177183228e-05,-0.00331261811459083,-0.000148195528685946,-0.000227296612523631,-0.00267213653123477,-1.56226456891062e-05,2.56504295226279e-05,-0.000179993532741562,0.00016010460120075,-0.000105558981925213,-0.0013722701825607,1.09988435017527e-05,-0.00279065506811982,5.73770102114679e-05,-0.000204484860811149,-7.54108136735709e-06,0,1.09988435017527e-05,-4.22897651528586e-05,2.32822276018396e-05,-0.00346629508712493,-3.66216099534356e-05,6.4098249852762e-05,-0.000516833176501308,-0.00278397095940619,-0.000451894661892105,-0.000207091741976306,-4.22897651528586e-05,0,-0.0032687773913187,0,-2.7850490786463e-05,-6.90008915347207e-05,-0.00351468386515119,0.000197289806870948,-0.00406182102313846,8.44982146830375e-06,-0.00475314807458549,4.45399261010948e-05,-6.90008915347207e-05,-0.0086589704187876,0,3.25475764384464e-06,-0.00385595508529324,0.00014672147007655,-2.7850490786463e-05,-0.000456509233268676,-0.00288944953936365,-0.000274882318440639,-0.00216555059885692,-0.00386289360834269,0,-0.00919790333683146,-0.00481807083604302,-4.22897651528586e-05,1.60028430382653e-05,-0.00487373836641591,-2.5251342048449e-06,-0.000125946456990711,6.0748039931724e-07,9.05727295661407e-05,0,5.73770102105797e-05,0.000127791378306874,-0.000453483352895745,7.26791276983718e-05,-4.51771362808273e-05,3.99240642607879e-05,-0.00375083683620581,-0.00137034522379764,0.000341342435780767,7.26791276983718e-05,-0.00511222190720773,-0.000978367356454513,-0.00393432967284468,2.56504295226279e-05,-0.00370418377470116,-0.00317677382036585,2.7868869838521e-05,1.09988435017527e-05,-0.000824233307987754,7.68151685335283e-05,7.68151685335283e-05,-1.56226456891062e-05,7.21302368917875e-05,0.000143362347268194,4.22461828621934e-05,8.43607689251513e-05,0.000127787953403846,-0.000149382619955674,2.56504295226279e-05,-0.00102928121910839,0,-4.22897651528586e-05,-0.000457219917485041,1.84589672036495e-05,-2.32667703192746e-05,-0.00133846301708562,-0.000352448154152363,-1.56226456891062e-05,-2.83762147370581e-05,9.45868640158665e-05,-2.67029232361438e-05,3.27821040144727e-05,-0.00565166101596404,7.05732136170312e-05,3.03410641135926e-05,-0.00263052361556504,-0.00128727357149216,-4.22897651528586e-05,-6.64485424977102e-05,-0.000618445544091628,6.40982498536502e-05,-0.00135853424054577,-0.00142280200721334,-8.94192177183228e-05
"18:47401234:A:G",-0.000111352900862727,-0.00176326871915666,-0.00410353397170038,-0.000122050023994014,-0.00260364842098326,0.000150344641607347,-0.00214494717897562,-0.00148599395667581,0.000345840796384334,-0.000437963670917974,-0.00176326871915666,-0.000181656156718724,-0.000312343477157029,0.285525901203162,-0.00227041337333311,-0.000100799872901014,-0.00311797600585262,-0.000875413242306777,-0.00146565918166441,0.000211520926787223,-0.0031332666600008,0.000170081032887737,-0.00227041337333311,-0.000452839001908067,-0.00260364842098326,7.9693854678986e-05,-0.00194312410836961,-0.0016128215692337,3.26272995616605e-05,-0.000120961596507208,-0.0024569358129698,-6.82684244184273e-05,0.00154779531203797,-0.00163170762210463,-0.00114765710310039,-0.00156693195854629,-0.000930603416806619,-0.0014527069311594,-0.00164828104136561,-0.00154917650963871,0.000123803825424318,-0.0010863341965992,-0.00260364842098326,-0.000261948440556381,-0.0014065495128408,-0.00532791321226345,-0.00018537718636491,-0.000122050023994014,-0.0014527069311594,-0.000958841676295563,0.000300995097821222,-6.82684244184273e-05,0.000212741161071062,-0.00634182590011445,-0.00311747340795332,-0.000718086618274327,-0.00345769025371068,-0.00611429971281829,-0.00049469504449462,0.000377257550596255,-6.75022742147036e-06,-0.000122132372393224,0.000249828034773358,-0.00565371548907034,-0.00296817170837915,-0.000958841676295563,-0.000223541422083251,-0.00498907001359949,0.000277889341845583,7.9693854678986e-05,-0.00185985918787246,0.000293264276018057,-3.96575413459388e-05,-0.00772032918767085,-0.00560676111419633,-4.16205394211389e-05,-0.00546677039308552,0.000255140043655011,3.26272995616605e-05,-0.000762716461549573,0.000277485165644187,0,-0.00463446990428462,-0.000435527720529016,-0.000815621216545104,-0.00786931108076105,0.00045848676915039,-0.000100799872901014,0.000277485165644187,-0.00342173117181854,-0.000237777727665645,-5.17645419586543e-05,-0.0014644817202587,-0.00208334598120175,0.000172523512286027,-0.000459059093982361,0,-0.00739686877701384,-0.000288106593321125,-0.00343567551600632,-0.000670437474637797,-0.00104256147951709,-7.44323690033966e-05,-0.00142208867105609,7.9693854678986e-05,-0.000230247590356392,-0.000680481782425524,-0.00126096079750493,-0.00269891944959699,-0.000102210893465404,-0.00240553337263716,-0.00364683875158622,-0.00100607017885457,-0.00448388167608726,0,-0.00158042487251553,-0.00124304542122555,-0.00225365792064824,-0.000106735187306306,-0.000122050023994014,0.00018770589817052,-0.000306626224938711,-5.60943388645541e-05,-0.0017532217417795,-0.00097308950670083,-0.000143888420083726,0,-6.0541411894377e-05,0,-0.00164557818577027,-0.00103902808825929,-0.00288093844135329,0.000597090031976499,-0.00350560806924083,-0.00153617528176042,-0.00286876754071264,-0.00215511670995916,-0.00103902808825929,0.000325760527999819,0,-0.000112324277329101,-0.00323976703795203,-0.000594546881249158,-0.00164557818577027,-0.00409112912850418,-0.000946903351567663,-0.00504957576605314,-9.7858798402406e-05,-0.00306391480875146,0,-4.72562727527048e-05,-0.00398332169182058,-0.00124304542122555,-0.000637390963764695,-0.000813683847225022,-9.71549970074648e-06,0.000215337292826412,-0.00286521677838447,-0.00206814784395171,0,-0.00242439953184093,-0.0030025284796098,-0.00172133467428015,0.000221536184385585,-0.000277335964542935,0.000114714221333578,-0.00250306703012848,-0.000926764218135645,-0.000693612617943984,0.000221536184385585,-0.00101670673646925,-0.000286334934300747,-0.00279782354216618,7.9693854678986e-05,-0.0039801037138778,-0.00037436434827498,-0.00152580702257943,-0.00158042487251553,-0.00391577508055319,0.000237778995880511,-0.000612412878258972,-0.00142208867105609,-0.000502820740655885,-0.00147832812847604,0.000123803825424318,0.000244594878295423,0.000394058483842663,-0.000482458272437647,7.9693854678986e-05,-0.000558729115798684,0,-0.000143888420083726,5.52615657349875e-05,-0.00254832772063107,-0.00173952616797024,-0.00569424999570689,-0.0014035036518445,-0.00142208867105609,-9.03880717890715e-05,-0.00206105996522954,-0.000215418242804688,-0.00159490110292193,-0.00139356567383775,-0.00185503749265603,-0.00121362595726904,-0.00539799931875962,-0.00306531605319726,-0.000143888420083726,-0.00013339480174146,-0.00131027543059714,-0.0016482607535151,-0.00311263046645216,-0.000287136119523801,-0.000288106593321125
"18:47402488:A:G",1.59467735638685e-05,-0.0023154216818444,1.59467735638685e-05,1.70845784310814e-05,-8.80425685600983e-06,0.000493847406078274,-0.00286885717131646,-0.00375576111048215,-0.000382774222389415,-0.00176135806158317,-0.0023154216818444,0.000115763267521274,4.45399261010948e-05,-0.00227041337333311,0.203669640544923,1.48205897207987e-05,1.93957690086677e-05,-0.00243669910476729,-0.00220429749328144,-0.000181348881921117,-0.00137384723192024,-3.19844143152892e-05,0.00050140844502522,-0.00174836343608398,-8.80425685600983e-06,-1.28347736954026e-05,-0.00132438668591561,-0.00226039834495495,-7.76990024853319e-06,-0.00145957820582154,-1.08405650447452e-05,0.000102567644346685,-0.00234406622806826,-0.0036897164231382,-1.91662664814629e-05,1.24312185514341e-05,3.08722657784699e-05,-0.00228740720753962,-7.5784088744868e-05,-0.00314287375235267,-2.21160985738322e-05,-0.000183841758779835,-8.80425685600983e-06,-0.00364051743617466,-0.0016207000148043,-3.56779031864818e-05,8.7044661425395e-06,1.70845784310814e-05,-0.00228740720753962,3.4557445749428e-05,-5.11486468717237e-05,0.000102567644346685,-0.000127270435112514,-0.00211798450888345,3.17945616767901e-06,-0.00270882794161409,-0.00390454397187412,-0.000775033549794912,-0.000151308216450374,-0.0013780848314644,-4.69420681170618e-05,-8.23714500279848e-05,4.71137141913047e-05,-0.000744794847428842,-5.66792108003256e-06,3.4557445749428e-05,-0.000288966691791792,-9.82775557378801e-06,-0.001428181456399,-1.28347736954026e-05,-4.86523558240748e-05,-5.03255696484572e-05,4.26139990938879e-06,-0.000864749979761825,-0.00929224917098104,1.33409326767975e-05,-9.45053120524619e-05,-0.00214327012346072,-7.76990024853319e-06,-0.00101991269592716,-4.86523558240748e-05,0,-2.06839447480789e-05,-0.00258239171693919,-4.0300221989753e-05,-0.00912542550052731,-0.000294856319236203,-0.00247880310930793,-0.000911416556617084,-3.7789108920272e-05,-0.0125553150607809,-0.00110401603905608,6.7483783015021e-06,-0.00708982971496308,-0.000129984428363095,-0.00950782616576262,0,-0.00243668153572241,-0.00168048209205818,-0.00195658746790706,-0.00140357300372163,-0.00176784859223744,-0.00407757769207873,6.45951399569356e-06,-1.28347736954026e-05,-0.0013093300741156,-0.00109388544114619,4.84205423543216e-05,-5.66792108003256e-06,-6.72451358596504e-06,0.000174523547657124,-3.10354654544653e-05,0.00024532629593832,-0.00158668949177265,0,-6.72451358596504e-06,1.93957690086677e-05,-1.1842850468291e-05,-5.66792108003256e-06,1.70845784310814e-05,-3.38512875366348e-05,3.83934245071771e-05,-0.00392571325576263,-8.80425685600983e-06,0.000245836368315544,1.93957690086677e-05,0,-1.91662664814629e-05,0,-0.000229367332225117,3.20880103990007e-05,0.000165448101125953,-0.000585831206718623,-0.00189900537175713,-5.66792108003256e-06,-9.25106947819998e-05,-0.0052664011905339,3.20880103990007e-05,-0.00254466052629532,0,-0.00306437710320928,-0.00173348101474335,-0.000614423142025089,-0.000229367332225117,-0.000238517628120327,-4.84343647153551e-05,0.000115107938758463,-6.4130093158532e-05,0.000154218451168475,0,0.000145582478505268,-0.00307499744677919,1.93957690086677e-05,-0.00353934865898253,6.07851433231943e-05,1.04892504904086e-06,5.80849096598612e-05,-2.42909434611249e-06,-4.78019224345871e-05,0,-0.00548782901156919,0.00014568582529062,-2.0160145389525e-05,-0.000644225513759977,2.05695227446512e-05,-2.11433663155347e-05,-2.97600267638032e-05,-6.31545034854852e-05,7.06851924618945e-05,-0.000644225513759977,7.43278140769021e-05,5.19501019882185e-05,-3.48460749224344e-05,-1.28347736954026e-05,0.000188241866388772,-3.10354654544653e-05,-1.61189337353207e-05,-6.72451358596504e-06,-0.000137498503602451,0.000113698501386317,-3.92154326034344e-05,6.45951399569356e-06,8.33463007854363e-05,-0.000804279445545397,-2.21160985738322e-05,-4.51934665504083e-05,-6.6568161648739e-05,-0.00139862618972941,-1.28347736954026e-05,3.83934245071771e-05,0,1.93957690086677e-05,-0.00155047808208586,-0.00695686376297822,-0.00406825938823552,-0.000516137089873858,-0.000582452603206107,6.45951399569356e-06,1.37058518845379e-05,-0.00444728207715617,1.09977524971328e-05,-1.81615566576809e-05,8.62600628765975e-05,-0.000831337012967559,-1.71458392408397e-05,-0.0026713307397026,-0.00204450840994674,1.93957690086677e-05,2.91429263912235e-05,-0.00487059709260595,-3.38512875366348e-05,-0.00210992693116019,7.54223339294313e-05,-0.00168048209205818
"18:47405048:A:G",0.000409157536270577,0.000568454049213685,-1.09384277209301e-05,-1.17892195010683e-05,5.50463292636749e-06,1.61806301779421e-05,-6.09792478654114e-05,0.000123579290058018,-0.00141057396473698,-0.00117020377992016,0.000568454049213685,-8.58705812785132e-05,-3.10912649359452e-05,-0.000100799872901014,1.48205897207987e-05,0.113135593209725,-1.35221820913856e-05,-7.94149289937707e-05,0.000537697368510059,-3.77221854668264e-05,9.25071806712197e-07,2.00964243592949e-05,1.48205897207987e-05,-0.0011779233353284,5.50463292636749e-06,8.43188385601934e-06,6.24968793694336e-06,0.000554614546364185,4.75048086023833e-06,1.63949465203928e-06,6.98580913827129e-06,-7.52220531134995e-05,-8.93081132362639e-05,0.000113301298490853,1.19996866807526e-05,-0.00536821464699866,-2.13733578782183e-05,0.000557984290009195,4.69681125823129e-05,-2.33682540695668e-06,1.41281955743366e-05,0.000105083373268755,5.50463292636749e-06,-0.00130429030631163,-6.42538153794447e-06,2.27354625454979e-05,-6.42538153794447e-06,-1.17892195010683e-05,0.000557984290009195,-2.4186397109105e-05,3.24939056257634e-05,-7.52220531134995e-05,3.29577344224674e-05,0.000105708088080192,-2.33682540695668e-06,-6.8177525256452e-05,-0.00138952103144785,-1.79493033414246e-05,-0.00114686309716028,-0.000188184101230782,2.95197805622038e-05,4.98289166381838e-05,-3.30891872506456e-05,-2.90163722374004e-05,3.21421246596287e-06,-2.4186397109105e-05,1.05287070946147e-05,6.24968793694336e-06,-0.000229753046822267,8.43188385601934e-06,3.07311851397429e-05,3.19134092405804e-05,-3.13468242207904e-06,1.39116577155818e-05,-0.00152352711981063,-9.88400901658082e-06,5.63153838273323e-05,-0.00106834196691619,4.75048086023833e-06,4.54263832248003e-05,3.07311851388548e-05,0,-0.00153122399753425,-2.32371161770217e-05,2.32799510779813e-05,-0.00129120348509471,4.94147717944315e-05,-0.000861204858879638,-0.00474701977259784,2.29848240671515e-05,6.98580913827129e-06,2.14321368208203e-05,-5.96344922598746e-06,-0.00624926257254454,7.64957800134525e-05,-0.00531823961204125,0,-7.98914688795449e-05,-2.91418932123477e-05,-0.000129009358901477,0.000198140554947379,-7.21306018984791e-05,-0.00224540285657326,-4.75981272707315e-06,8.43188385601934e-06,-0.0120172573572885,5.3340729565754e-05,-0.00104442459661325,3.21421246596287e-06,3.98706449278308e-06,-0.000137125629630752,-0.00185514373627349,0.000151301732695508,-1.63119633533881e-06,0,3.98706449278308e-06,-1.35221820904974e-05,7.71315590775146e-06,3.21421246596287e-06,-1.17892195010683e-05,2.14321368217085e-05,-2.80149999500878e-05,-0.00211994856529785,5.50463292636749e-06,0.000136166566303331,-1.35221820904974e-05,0,1.19996866807526e-05,0,-0.00136995114306782,-2.22995075365162e-05,-0.000129009358900589,6.51229644663687e-05,-2.7106487419104e-05,3.21421246596287e-06,-0.00617843045842204,1.48205897207987e-05,-2.22995075365162e-05,-0.00481897078702698,0,-0.00552446866638245,-1.80468915891296e-05,4.84538731297945e-05,-0.00136995114306782,-0.00146462280124737,-0.00140884337683822,-8.74185604411437e-05,0.000176112151993202,-0.00011906594108968,0,-0.00503750858301188,-0.00533725914583272,-1.35221820904974e-05,5.50463292636749e-06,-4.30805378694998e-05,-7.69652941379206e-07,-4.09450057379246e-05,8.37264395592285e-07,3.01291974151852e-05,0,1.94160442212876e-05,-0.00111077553615146,1.27179012840983e-05,2.40075632964576e-05,-1.44047399377456e-05,-0.00508083518058555,-0.00150071219620518,3.80149182337419e-05,-5.09956485936769e-05,2.40075632964576e-05,-5.32133543904578e-05,-0.00116171972468315,-0.00152760435456756,8.43188385601934e-06,-0.000150545489360887,1.94160442203994e-05,9.79080345597794e-06,-0.00533076859740422,0.00017184593310926,2.5249546020234e-05,2.5249546020234e-05,-4.75981272707315e-06,-5.98803740050613e-05,4.74694326841885e-05,1.41281955743366e-05,2.82781034428581e-05,4.20022808969023e-05,-4.87160369146977e-05,8.43188385601934e-06,-0.00123228422927824,0,-1.35221820904974e-05,-0.00135793094011127,6.24968793694336e-06,-0.00120643378859242,-0.00141520782075943,8.82553696746058e-05,-4.75981272707315e-06,-9.26729003491999e-06,3.13258785569204e-05,-8.13291309498254e-06,1.12725443015549e-05,-6.22715284768205e-05,2.33753456129193e-05,1.05363070046494e-05,-0.0014042723277683,-0.00013446652964344,-1.35221820904974e-05,0.000595458694069961,-0.00167493060166635,2.14321368208203e-05,-0.000122538467977051,-0.00127736913113008,-0.00458637887955771
"18:47405820:T:A",-1.46692046616437e-05,-0.00309731213495468,-0.0016829474836717,-1.58317910168293e-05,-0.00450329378169378,2.11784200834231e-05,-0.00259198268529115,-0.00380504122686975,6.10196857895318e-05,-5.34226267605575e-05,-0.00309731213495468,-0.000121209506214193,-4.22897651528586e-05,-0.00311797600585262,1.93957690086677e-05,-1.35221820913856e-05,0.238998161675704,-0.00289501272503223,-0.00149138429631623,0.000145963868789067,9.24158371162775e-07,2.61475800016342e-05,1.93957690086677e-05,-5.50679163584533e-05,-0.00450329378169378,1.11096478940809e-05,8.21200237233199e-06,-0.00146033824733216,6.21467393990827e-06,2.0529722153384e-06,9.19074014316124e-06,-0.000105462997416872,-0.00302023854471223,-0.003891590058962,1.56838552296534e-05,-0.00210947474633905,-2.88783458897157e-05,-0.00144321557150651,5.9901078412139e-05,-3.14406621626517e-06,1.84864800294449e-05,-0.00128370337398298,-0.00450329378169378,-2.78352807328019e-05,-8.67552465688703e-06,-0.00308904681827915,-8.67552465688703e-06,-1.58317910168293e-05,-0.00144321557150651,-3.27874291858876e-05,4.19729134923941e-05,-0.000105462997416872,4.36822023903716e-05,0.000127648608273745,-3.14406621626517e-06,-0.0025720694339384,-0.000569623079038628,-0.00202536327201397,-0.00010595093009691,-6.74409002066056e-05,3.8173484258941e-05,-0.00114114798907572,-4.51020168314997e-05,-0.00208194713180365,4.16241504375137e-06,-3.27874291858876e-05,-0.00195672890199905,-0.0027036360457986,-2.68908630651765e-05,1.11096478940809e-05,3.97238177987091e-05,4.12331363488505e-05,-4.22045053483089e-06,-0.0018836878809827,-0.000790081885354788,-1.33849127648134e-05,-0.00106905217081987,-1.54767764311003e-05,-0.00207791298123006,5.7983371907433e-05,-0.00129267259226573,0,7.96797355917533e-06,-3.14663334801679e-05,2.99446354192767e-05,-0.000555179048795651,6.29309174717818e-05,-1.35221820913856e-05,3.97238177987091e-05,-0.00184238039597506,9.19074014316124e-06,2.78847295378526e-05,-8.21408770512733e-06,-0.000610227102610494,-0.00681561065831282,-0.00578442444797833,0,-0.00300115780848742,-3.95541241804409e-05,-0.00128694105354743,-0.00919204698735232,-0.00178603818688305,-0.0028583646146032,-6.41747780871782e-06,1.11096478940809e-05,-8.13306398672609e-05,6.76247918480755e-05,-0.00208041889929866,-0.00226423196876979,5.19554885158868e-06,-0.0011656177578363,2.52609951152394e-05,-0.0121902186857259,-0.00227506931810861,0,5.19554885158868e-06,-1.82049119006322e-05,1.0156538506223e-05,4.16241504375137e-06,-1.58317910168293e-05,-0.00152733378225012,-0.00246072278703835,-0.00302692216895828,7.22006821174404e-06,-0.0120152489607772,-1.82049119006322e-05,0,1.56838552296534e-05,0,-0.00199769138991446,-3.01634273194296e-05,-0.00133166028522425,8.17755652873231e-05,-0.00176453208858618,4.16241504375137e-06,-0.00414113308608766,1.93957690086677e-05,-3.01634273194296e-05,-0.00599090313718875,0,-0.00229380611649788,-0.00189992770839709,6.17429564622185e-05,-0.00199769138991446,-0.00471674306296688,-0.00625207322229482,-0.000124197039464313,-0.000825344566964148,-0.00140711466876997,0,-0.00546939602596463,-0.00249048561153309,-1.82049119006322e-05,7.22006821174404e-06,-5.91183569866871e-05,-1.03411766527728e-06,-5.60722090066079e-05,9.76069179259298e-07,-0.00170766313521753,0,2.5260995113463e-05,-0.000372515924189187,1.66307731364057e-05,3.12214990252357e-05,-1.94160957676104e-05,1.75648969769071e-05,-0.00473896718979949,-0.000377457121333968,-0.000121561117346403,3.12214990252357e-05,-7.35218847296437e-05,-0.00179992143852203,-0.00483188412173785,1.11096478940809e-05,-0.00141394947756979,2.52609951152394e-05,1.27637014086801e-05,5.19554885158868e-06,-0.00323370053598282,3.28246490211015e-05,3.28246490211015e-05,-6.41747780871782e-06,-8.3040930392464e-05,6.05232405419542e-05,1.84864800294449e-05,-0.00373436927712145,-0.000192951061841917,-0.000516084993647858,1.11096478940809e-05,-0.00186690923689081,0,-1.82049119006322e-05,-0.00654408307127863,8.21200237233199e-06,-0.00220830106623238,-0.00349544263653367,-0.00279756765516392,-6.41747780871782e-06,-1.23904191760005e-05,4.04835029543804e-05,-1.09971152788546e-05,1.4723883207779e-05,-8.6534734478505e-05,3.04039355842889e-05,1.37505900283941e-05,-0.00473108853012771,-0.00138851745486868,-1.82049119006322e-05,-2.8386650049228e-05,-8.44242897573011e-05,2.78847295378526e-05,-0.00142245304374899,-0.000733976705016737,-0.00209426964162418
"18:47406365:G:A",-8.73713710776158e-05,-0.00141578309093138,-0.00388886177865988,-9.54384376861128e-05,-0.00241950843891292,0.000119717373944894,0.000702953146896945,-0.00103797063898625,0.000103866604655334,-0.000338880813996134,-0.00141578309093138,-0.000103452607577381,-0.000246908592097306,-0.000875413242306777,-0.00243669910476729,-7.94149289937707e-05,-0.00289501272503223,0.271432609669456,-0.0011644074996191,9.60972069599109e-05,-0.00340336446186651,0.000138566023837328,-0.00243669910476729,-0.000350218888145015,-0.00241950843891292,6.33083759469244e-05,-0.00209262952553857,-0.0012885488373513,2.82407369551763e-05,-6.47048922575166e-05,-0.0022778250765203,-1.03972844449629e-05,0.000562509326353045,-0.00116157680787943,-0.000910649830230703,-0.00089781743349171,-0.00102513937783133,-0.00116064031203766,-0.00154286249571367,-0.00168200209466907,0.000100073250946409,-0.00108339208794384,-0.00241950843891292,-0.00293527679943928,-0.0015270619816965,-0.00565472388163801,-0.000114592269077285,-9.54384376861128e-05,-0.00116064031203766,-0.00104528003214099,0.000238974899337663,-1.03972844449629e-05,0.000150792144421708,-0.00216943635959854,-0.00291928365026983,-0.000458239999015397,-0.00300567607655111,-0.00696833376670636,-0.000182404030021566,-0.000402591425890275,-7.1670324457429e-06,-0.000247619640720842,0.000224985799468946,-0.00627644240703873,-0.00243118701902301,-0.00104528003214099,-0.000386923828179064,-0.00528418262952535,-0.000431879157062998,-0.000611611079924579,-0.00172411163559083,0.000233338144004058,-2.97257871748613e-05,-0.00720199288360934,-0.00507083927827301,-0.000207547521019258,-0.00471923874031077,-0.000348906179889141,2.82407369551763e-05,-0.00051800406280833,0.000221829841812848,0,-0.00324987619414774,-0.000333711987042129,-0.00108246897024777,-0.00580991173814915,0.000362392457656568,-7.94149289937707e-05,0.000221829841812848,-0.00373905035365318,-0.00019876376851613,-0.000697767016694328,-0.0015760789252397,-0.00199790472702155,0.000150497258668558,-0.000368342323697313,0,-0.00757811616027659,-0.000228432025408232,8.09881575314364e-06,-0.000181300922853733,-0.00076258533745488,-9.00081875716552e-05,-0.00154762278099607,-0.000611611079924579,-0.000252897271026065,-0.000449402261804011,-0.000275622972670142,-0.00250698698497409,-5.35367755061245e-05,-0.00257304341992715,-0.00333176422546266,-0.00092166458937637,-0.000722472439473876,0,-0.00172294393722083,-0.00135169751678266,-0.00207701397880733,-5.55667372328372e-05,-9.54384376861128e-05,0.000151529861219579,-0.000482103250628363,-5.08825367173671e-05,-0.00190042845197969,-0.000766785549970894,-0.00011191368142871,0,-2.6462120065851e-05,0,-0.00128506182121857,-0.00113089986955117,-0.00306178379422839,0.0004715746341315,-0.00325088754053482,-0.00167630421783205,-0.00249168628431029,-0.00199018733065959,-0.00113089986955117,0.000183528831374069,0,-5.60675730794102e-05,-0.00300224115745973,-0.000432662668146122,-0.00128506182121857,-0.0043996750780666,-0.000762791928038631,-0.00509915751708245,-0.000616190777094516,-0.00326239012312968,0,-5.5098277155885e-05,-0.00513766522119274,-0.00135169751678266,-0.000472754998168234,-0.000672496053102378,-7.2797857590956e-06,0.000204276149026406,-0.00314453730356057,-0.00193011565300338,0,-0.00226180960579825,-0.00323919051672839,-0.00188094289723217,0.000176398000285793,-0.000192300545321267,9.33427039608858e-05,-0.00273003281839079,-0.00190753788320741,-0.000529709737264739,0.000176398000285793,-0.00085562223515101,-0.0004232396223669,-0.00302443075644643,6.33083759469244e-05,-0.00427901879813852,-0.000499232238972525,-0.00167609195154483,-0.00172294393722083,-0.0041971500587672,0.000188330535545234,-0.000471072564448782,-0.00154762278099607,-0.00047540213936248,-0.00139385537993775,0.000100073250946409,0.0001978275351604,0.000311149877103567,-0.000383960405774708,6.33083759469244e-05,-0.000713489793591648,0,-0.00011191368142871,6.10040604547279e-05,-0.00236671850919379,-0.00224197420883154,-0.0063084557984423,-0.00170970740628817,-0.00154762278099607,-7.1566879115359e-05,-0.00171520215498244,-0.000139264831360286,-0.00174990966862953,-0.00121580134038268,-0.00170688842762257,-0.000971530430223133,-0.00403274137523368,-0.00323358663856688,-0.00011191368142871,-0.000111985830271166,-0.000904681331962198,-0.00182506362468082,-0.00330300854835741,-0.000130730289566117,-0.000228432025408232
"18:47408803:T:C",0.000412346968180266,0.00399278483041865,-0.00204024535403224,-0.000143318046416319,-0.00168999700075911,-0.00170041344919092,-0.00268327656118572,-0.00282895884494661,-0.00046989385812557,-0.00065258688199421,0.00399278483041865,-0.000286417695229524,-0.00149323660557954,-0.00146565918166441,-0.00220429749328144,0.000537697368510059,-0.00149138429631623,-0.0011644074996191,0.369769884028439,-0.000651817486200912,-0.000151213521037086,-0.00900292898379185,-0.00220429749328144,-0.000668805865873701,-0.00168999700075911,-0.000841585267325584,-0.00261027138590109,0.00531971759629357,-0.00158557358784073,-0.000146092883803739,-0.00121089701633537,-0.000155398643141069,-0.00130594841534215,-0.00273488099131125,0.0001075778323818,-0.00383845934941185,-0.000907894538181075,0.0047854845081936,-0.000986352746029873,-0.00319227784097187,0.000141140139777285,-0.0017886455486904,-0.00168999700075911,-0.000437784774264927,-0.000221560044628255,-0.00202571740960433,-9.86662984487907e-05,-0.00014331804641543,0.0047854845081936,-0.00180962815656915,-0.00347506152558541,-0.000155398643141069,-0.000530251167923712,-0.0010702743476072,-0.000452207679591865,-0.000471995259093028,-0.00426338516169356,-0.0105723510632298,-0.000594412352175944,-0.022132058674198,-0.00174366289693229,-1.36391386194035e-05,0.000231805038042765,-0.0103939994258058,-0.00147877435124233,-0.000596767600041126,-0.00512591081237446,-0.00261027138590109,-0.023097343746838,9.21483343212515e-05,-0.0049209597068085,-0.00163480048437226,-4.79577773475626e-05,-0.00505222276506245,-0.00513603877155733,-0.000494160621484774,-0.000769949156788741,-0.00721685180861886,-0.00158557358784073,-0.00183187739511226,-0.00167297815015299,0,-0.0057670791852491,-0.00283189508965886,-0.000342879389878981,-0.00911833890678659,-0.00102691599154525,-0.000817340976167813,-0.00188746037318843,-0.0010910169256686,6.98183042890932e-05,-0.00176259179918503,-0.00298133529772393,-0.00117265267487277,-0.00504500599090907,-0.00058529179405431,0,-0.00680086771980415,-0.000479666204395102,-0.000951094751528991,-0.00388616767873406,-0.000826545257115008,-0.00379461619216404,-7.29537382611056e-05,9.21483343212515e-05,-0.0100714956969759,-0.00181481412581519,-0.00381741341112996,1.12129161058405e-05,2.32651052307631e-05,-7.68226532326111e-05,-0.00352510677425588,-0.0039920740037096,-6.48585735989471e-05,0,2.32651052307631e-05,-0.00120952413314157,-0.00101717145654412,-0.00147877435124233,-0.00014331804641543,0.000214006652151433,-7.18652367677208e-05,-0.00149845982571417,-0.00266771461648396,-0.00387120469486346,-0.000500630669480806,0,-0.00157762711494502,0,-0.000384057137293503,-0.000530519640355109,-0.000191108236449189,-0.00214297222855997,-0.0012830431708597,-0.00147877435124233,-0.000277622491356766,-0.00167578445333216,-0.000530519640355109,-0.00217422274032542,0,-0.0107631067015364,-0.00133089179707735,-0.0013656406647975,-0.000384057137293503,-0.00760445720558689,-0.00189759662591626,-0.0001500537464727,0.000556306971239984,-0.00020797708675957,0,-0.00247988690507306,-0.00494182024286749,-0.000319989923466935,-0.00168999700075911,0.000549744288691478,-1.17437861613112e-05,0.000186455860426094,-0.000149801027228946,-0.00489035275215777,0,-0.000362973008347645,-0.00141087180967325,-0.0024533608106756,0.000255124445887489,-0.00258483194904979,-0.00239329225552964,-0.00113487476568919,-1.9509998982592e-05,-0.00340798439740198,0.000255124445887489,0.000614734945443729,-0.000206156255400103,-0.00191177668708375,9.21483343212515e-05,-0.000232523853467725,-0.00154074875404486,-7.8061633819182e-05,-0.00274181739974644,-0.0114397800625334,-0.000643367072121315,-0.00281809277398981,-0.000196330833270864,-0.000687179061662491,-7.17062544985936e-06,-0.0023148082950506,-2.99905692182634e-05,-0.000447071185717185,-0.000820254686393795,9.21483343212515e-05,-0.000261427891321553,0,-0.000500630669480806,0.000186361293265769,-0.00103627805416551,-0.00728013053547549,-0.00518974491063329,-0.000170983268030334,-0.000196330833270864,-0.000105067997652419,-0.00227928544897082,-0.00153130781056365,-0.0015265166431071,-0.00168423691490993,-0.00189155561218346,8.43965888952525e-05,-0.000185198521145402,-0.000838368759582764,-0.000500630669480806,0.000395214428103863,-0.00184430323940621,-0.00301488935629912,-0.000721429731496137,-0.0046142595165648,-0.00356310067302967
"18:47410186:C:T",-4.16108780738611e-05,-0.00113244449041705,-0.00336906287107031,-0.00020132723747146,-0.00140680400099757,-0.00108168575918199,-0.000154408464283939,0.00019747961005212,-0.00329151624729018,-0.00148370894777061,-0.000452496135753044,-0.000686909018540849,8.10521780580942e-05,0.000211520926787223,-0.000181348881921117,-3.77221854668264e-05,0.000145963868789067,9.60972069599109e-05,-0.000651817486200912,0.562463862940371,-0.00477552971635964,-0.00140219109746464,-0.000181348881920229,-0.00147731627456071,-0.00140680400099757,2.44156669060303e-05,-0.000243383026085731,-0.000271541915104923,-0.000306229062807972,-0.000219386017238588,-0.00182140943296627,-0.000559607623236591,0.000280556189409253,0.000159218922005877,-0.00391689846048315,-0.00735737079438348,-0.000496051142423681,-0.000625131646999844,-0.00172094837621728,-0.000785431438039552,-0.00158655329517376,-0.000471050233533443,-0.00140680400099757,-0.00602170654194323,-0.000606774727335058,-0.000379295423974746,-0.00167161642377156,-0.00020132723747146,-0.000625131646999844,-0.000124119579427706,-8.78886987996097e-05,-0.000559607623236591,-0.00442599298282342,-0.00145000620193469,-0.00242615563991411,-0.00432076871004528,-0.00794603558356011,-0.00328331513392532,-0.00719010871365144,-0.00849435176467317,-0.00291530016532304,-0.00229860666077819,-0.000197695849909252,-0.00249594565121081,-0.000574348079547704,-0.00582682426568049,-0.00251206567532725,-0.00168222362746206,-0.00851505972583366,-0.000164243562574384,-0.000248246461897139,-0.000551962846526699,-0.00224902617178735,-0.00371039879825208,-0.0012027774736687,-0.000908162034646942,-0.00237653688292028,-0.0111166820882187,-0.00461743132950865,-0.00250670645912754,-0.00137480141265645,0,-0.00589461824810389,-0.00365568053291554,-0.00971653492112345,-0.000254440439273917,-0.00324144013692784,-0.00131881299525372,-0.000105814474192556,-0.0021883573307524,-0.000357964779988507,-0.00603212883306714,-0.00159873789478882,-0.0040274333209851,-0.000366716400515887,-0.00769454056875674,0,-0.00557346043507145,-0.000625861081888779,-0.00152012824835968,-0.00281037449352661,-0.000501582077987006,-0.00530928603108904,-0.000587193638422967,-0.000164243562574384,-0.00233631766352183,-0.00270935250718551,-0.00294487687782574,-0.00712541343236417,-0.00390928247724798,-0.00575782697865312,-0.00167977968617761,-0.00301168649816974,-0.00300215863649234,0,-0.0025787155951571,-0.00133462626682057,-0.00162511840974577,-0.00241601784022549,-0.00292122214826573,-0.00190128156252278,-0.00513359837874461,-0.00539802090904518,-0.00994416857649139,-0.00230065631144383,-0.00266181959853995,0,-0.00191339317354089,0,1.0705212667439e-05,-0.00305208878492103,-0.00685235014231678,-0.0015356012558212,-0.00153571995766377,-0.00116011513420844,-0.00580725706155771,-0.00156713218311655,-0.00305208878492103,-0.00263294253406787,0,-0.00233409775424054,-0.00157007738599901,-0.00241990369535117,1.0705212667439e-05,-0.00270148461411202,-0.00451628073077348,-0.00466514442792842,-0.00922515203406959,-0.00669960035058859,0,-0.00295270904729961,-0.00979827663692845,-0.00362950978571419,-0.00170802817590499,-0.00423924436722789,-0.00393685997591486,-0.000244245065948334,-0.00256592901637021,-0.00632475194154125,0,-0.00382273997922722,-0.00484800726309187,-0.00794441586191041,-0.000790355470444482,-0.000481821538254934,-0.00192879040329785,-0.0104774250088613,-0.00667811478440905,-0.000530202869810648,-0.000790355470444482,-0.00327238511713901,-0.00652545879288402,-0.00924775946955858,2.44156669060303e-05,-0.00509229707272052,-0.00171580007538674,-0.00450144922022888,-0.00114672397812132,-0.00737645249860552,-0.000107039227399852,-0.000107039227399852,-0.000661913188819696,-0.000490983597524419,-0.00153740393076207,-0.00286175602436956,-0.000531870414620439,3.39736592778195e-05,-0.00104835103941259,2.44156669060303e-05,-0.00568501091953522,0,-0.00266181959853995,-0.015737274528997,-0.00190579305474348,-0.00481395634525628,-0.0086147776658172,-0.000931438364684123,-0.000661913188819696,-3.39705382614852e-05,-0.00172085923397969,-0.00340156968853655,-0.00745964987567804,-0.0021315132513049,-0.00879238349696188,-0.000867238081315058,-0.0087428846798292,-0.00314325240521507,-0.00266181959853995,-0.00133333982636596,-0.00548350271239428,-0.00175545371743979,-0.00316347600556943,-0.000978341827352569,-0.000625861081888779
"18:47410854:A:T",9.38723303534061e-07,-0.000127109974260797,-0.00307499087466123,-0.00184516986836503,-1.14567640974172e-06,-0.000892967185506244,-0.000417740835907843,-0.00161240654999695,-0.00405745428204973,-5.03515031988755e-05,-0.000127109974260797,-3.45015747802435e-05,-0.0013114656776958,-0.0031332666600008,-0.00137384723192024,9.25071806712197e-07,9.24158371162775e-07,-0.00340336446186651,-0.000151213521037086,-0.00477552971635964,0.370791402721934,-0.00152263476868164,-0.00137384723192024,-4.73463962054055e-05,-1.14567640885355e-06,-1.8772382386345e-06,-0.00168403065458023,-0.000136810560550593,-9.74911622542152e-07,-1.86898157323867e-05,-0.00160272141520412,-2.52369628235272e-05,-0.00324756002456006,-0.00170273073852467,-0.00256628318804086,-0.000781964551656245,-0.00723610591782453,-0.000130505075449427,-0.0011741326150263,-0.00217075445296988,-0.000157382170344,-0.00770490967434068,-1.14567640885355e-06,-1.96561933476502e-05,-0.00214383519722094,-7.51346651917117e-06,7.34295783288985e-07,-0.00184516986836503,-0.000130505075449427,-0.00283150818127709,-0.000804456037489132,-2.52369628235272e-05,-0.0101369249299736,-0.0020203426074179,-0.00217075445296988,-1.97697117059192e-05,-0.000116495646834913,-0.00105035596419523,-0.000190836067217148,-0.00271055446691149,-0.00293135484185569,-0.0030621805808515,-2.09358240077506e-06,-0.000270358903128987,-6.4951156453219e-07,-8.44396490506938e-08,-0.000218426219396939,-1.32150828058286e-06,-0.00282994561695959,-1.8772382386345e-06,-0.00122898503372326,-0.000997477796496504,-0.00225402836014954,-0.00247643228222394,-0.00163758082102872,-0.00411731052712039,-0.00309950921297641,-0.000348588146659612,-0.00175796691458796,-0.000201228754673544,-0.000559638989281908,0,-0.000661508535505284,6.34348431560738e-08,-0.00403553988368621,-0.00160891466446511,-0.000593953190294982,9.25071806712197e-07,-0.000302696459264062,-0.000147390886465537,-1.5021862456166e-06,-0.00170621367454782,-0.000394252636035652,-0.000716447383523722,-0.000334103462680702,-0.00384060282217913,0,-0.00272224523638442,-1.09685978255669e-06,-0.000733766054165308,-0.00255282374877108,-0.00288286609690758,-0.00254161944530296,5.94653354113461e-07,-1.8772382386345e-06,-1.35791023012644e-05,-0.000165528723940156,-2.38259301799104e-06,-2.47967018971451e-05,-0.00385813914793243,-0.00106073317750788,-6.04417789684675e-06,-0.00431318071861808,-0.00194541187025532,0,-8.09443696958567e-07,-0.00191637232717934,-1.6874977308845e-06,-0.00826322681898084,-0.00184516986836503,-0.00232489910484546,-4.86084909221418e-05,-0.00269911508135579,-0.00172913935853991,-0.00349617434262717,9.24158371162775e-07,0,-0.00889287038002529,0,-0.00198396516073185,-0.00276827019969161,-0.0021545116531998,-0.000756848860191894,-0.00387278775603139,-0.005624775502449,-0.00345071580685552,-0.00137384723192024,-0.00276827019969161,-0.00272306791575527,0,-0.00196906467176916,-0.00417634405265499,-0.00201227519616509,-0.00198396516073185,-0.000113110529813554,-0.0016768473111286,-0.00370485157191336,-0.000675527308681367,-0.00181669450532063,0,-0.00185266487754543,-0.00503922683281965,-0.00233446473915233,-1.14567640885355e-06,-5.5719877618543e-06,1.15783079124299e-07,-4.7350848522143e-06,4.65479011246828e-06,-0.00142834646188739,0,-4.82218514035182e-05,-0.0035014361871788,-0.00158724206928351,-2.62102044370494e-05,-0.00226042271572791,-0.00153922215955848,-0.00405372036316276,-0.000328343280218135,-0.00556349940119727,-2.62102044370494e-05,-1.03974501008963e-05,-0.000765993747045002,-0.00464927959279926,-1.8772382386345e-06,-0.00382866196090514,-0.0124286201637034,-0.00808782419980947,-0.00177807571781141,-0.00668357092647431,5.82801735289351e-05,5.82801735289351e-05,-0.00214881292124325,-0.00073916290612619,-0.00110495462537763,-0.0032609502230212,-0.000440133301197854,-1.97969004682719e-05,-0.00127976191566237,-1.8772382386345e-06,-0.000656545335066205,0,9.24158371162775e-07,-0.000118570286305797,-0.00168403065458023,-0.00466748936601435,-0.0020473979188429,-0.00558324379906239,-0.00214881292124325,9.02717589568169e-07,-1.23503583910889e-05,-0.000364904229132712,-0.00250423427405444,-1.58008183754887e-05,-0.00256657431561891,-0.00520166608058403,-0.00500693643365757,-0.00193919076564786,9.24158371162775e-07,-0.00196362584207499,-0.0220855372028628,-0.00266150690379519,-0.00177658097817623,-0.00319257439249476,-1.09685978255669e-06
"18:47411162:C:T",-0.00210888381617735,-0.00855396610894399,-0.00210888381617735,-0.00241272124120506,-1.2232381790156e-05,-3.45491024020816e-05,0.000108823259853175,-0.00046382866737904,-0.00145422243975712,-0.000129012497676051,-0.00855396610894399,0.000149791427325852,5.96456474744045e-05,0.000170081032887737,-3.19844143152892e-05,2.00964243592949e-05,2.61475800016342e-05,0.000138566023837328,-0.00900292898379185,-0.00140219109746464,-0.00152263476868164,0.284491296257231,-3.19844143152892e-05,-0.00012380015661595,-1.2232381790156e-05,-1.76534838702835e-05,-1.36078648811377e-05,-0.00877346193896944,-0.00155802862020415,-5.1438700596762e-06,-0.0036201515468175,0.000133635369864216,0.000153557683794325,-0.000423407677469179,-2.66958855563715e-05,-0.00332610187981164,4.15619004376921e-05,-0.00884852992979823,-0.000107028568928413,4.24672475141108e-06,-3.06824729392474e-05,-0.00026954226126108,-1.2232381790156e-05,-0.000136622076465365,1.16069157929388e-05,-4.96688388649247e-05,1.16069157929388e-05,-0.00241272124120506,-0.00884852992979823,4.63823078575842e-05,0.000142757598919907,0.000133635369864216,-0.0011544152810421,-0.00230836583820171,-0.00269541750439117,-0.00181834104452072,-0.00107533112541569,-0.0026810939640507,-0.000756658091188633,-0.000282138057972503,-6.57158645296363e-05,-0.00310562310531992,6.29778208214304e-05,-0.00261128382683751,-8.02232212304688e-06,-0.00257313281358496,-0.00145674422055198,-1.36078648811377e-05,-0.00305871382430389,-1.76534838702835e-05,-6.80511011559304e-05,-7.03372505608257e-05,-6.94118983783909e-05,-0.00287378814119332,-0.00316048591125373,1.77640119076727e-05,-0.00308060367150542,-0.00296233272413904,-0.00287139724773056,-0.00010402485187555,-6.80511011568186e-05,0,-0.000134256336864702,4.47603185396162e-05,-0.0115348344597939,-0.000400911813821736,-0.000111818312102052,2.00964243592949e-05,-6.80511011559304e-05,-0.00291194589380872,-1.49697469069565e-05,-4.71853648562615e-05,-0.00349082816831547,-0.0026620348137687,-0.00350038315169865,-0.00211532278350646,0,-0.00234045009958939,-0.00111028316335116,0.000207917745201236,-0.00779960365994592,-0.00447585277647278,-0.000167399197400719,-0.00180061148286903,-1.76534838702835e-05,0.000107900494958457,-0.000324073199779562,-0.000749178798278294,-0.00159023184002738,-9.43981455048259e-06,0.000218056857610449,-0.00138346678791024,-0.00436480155209562,-0.0024767141045583,0,-0.00157674712001654,-0.004779302272925,-1.63182227845837e-05,-8.02232212304688e-06,-0.00218752296007274,-4.71853648553733e-05,-0.00183254136521516,-0.000142635431481963,-1.2232381790156e-05,-0.00436768809718524,2.61475800025224e-05,0,-2.66958855563715e-05,0,-0.000286229178936281,4.3153583011879e-05,0.000207917745201236,-1.43874143123668e-05,-0.00213977902539764,-8.02232212304688e-06,-0.00867324701318939,-0.00361407499671085,4.3153583011879e-05,-0.00200970699380942,0,-5.14387006145256e-06,-0.00230511182824333,-0.000109933826108133,-0.000286229178936281,-0.00276434172964368,9.34834801125106e-05,-0.0019574981220325,-0.000717261680714287,0.00019514932293685,0,-0.00168262032798605,-0.00317313332935942,2.61475800025224e-05,-0.00298800076817418,8.07920633736359e-05,1.40191756514696e-06,7.73365881849841e-05,-3.68247867932325e-06,-6.68897156330672e-05,0,-0.00286840505726893,9.47247334224244e-05,-0.00140256847566889,-5.21012928675901e-05,2.76970303447754e-05,-2.93672054541005e-05,-0.00403676870781133,-0.00298385270691703,-0.00194819894629905,-5.21012928675901e-05,9.81948430851531e-05,-0.000513851704922352,-0.00407151995321442,-1.76534838702835e-05,-0.00246309473713513,-4.33609928860434e-05,-0.00280027463940069,-9.43981455048259e-06,-0.000941259960954177,-5.44842560188386e-05,-5.44842560188386e-05,8.61928667905687e-06,-0.000983908103211917,-0.000981242179733499,-3.06824729392474e-05,-6.33299660774966e-05,-9.34009671542668e-05,9.11205624127831e-05,-1.76534838702835e-05,-0.000425380959587329,0,2.61475800025224e-05,-0.00169456267898127,-0.00318803808641643,-0.00631856333982883,-0.00241961354660702,-0.00237998209219192,8.61928667905687e-06,1.86193093325571e-05,-0.00391302964053342,1.46545747803373e-05,-0.0028898038997669,0.000113335235999656,-5.08913463770355e-05,-7.33257515186381e-05,-0.000857275170283778,-0.002505376208501,2.61475800025224e-05,-0.00171260195993561,-0.00479373718560838,-4.71853648553733e-05,-0.00244135624558961,-0.00482305939579319,5.63740791079681e-05
"18:47412060:C:T",1.59467735638685e-05,-0.0023154216818444,1.59467735638685e-05,1.70845784310814e-05,-8.80425685600983e-06,0.000493847406078274,-0.00286885717131646,-0.00375576111048215,-0.000382774222389415,-0.00176135806158317,-0.0023154216818444,0.000115763267521274,4.45399261010948e-05,-0.00227041337333311,0.00050140844502522,1.48205897207987e-05,1.93957690086677e-05,-0.00243669910476729,-0.00220429749328144,-0.000181348881920229,-0.00137384723192024,-3.19844143152892e-05,0.203669640544923,-0.00174836343608398,-8.80425685600983e-06,-1.28347736954026e-05,-0.00132438668591561,-0.00226039834495495,-7.76990024853319e-06,-0.00145957820582154,-1.08405650447452e-05,0.000102567644346685,-0.00234406622806826,-0.0036897164231382,-1.91662664814629e-05,1.24312185514341e-05,3.08722657784699e-05,-0.00228740720753962,-7.5784088744868e-05,-0.00314287375235267,-2.21160985738322e-05,-0.000183841758779835,-8.80425685600983e-06,-0.00364051743617466,-0.0016207000148043,-3.56779031864818e-05,8.7044661425395e-06,1.70845784310814e-05,-0.00228740720753962,3.4557445749428e-05,-5.11486468717237e-05,0.000102567644346685,-0.000127270435112514,-0.00211798450888345,3.17945616767901e-06,-0.00270882794161409,-0.00390454397187412,-0.000775033549794912,-0.000151308216450374,-0.0013780848314644,-4.69420681170618e-05,-8.23714500279848e-05,4.71137141913047e-05,-0.000744794847428842,-5.66792108003256e-06,3.4557445749428e-05,-0.000288966691791792,-9.82775557378801e-06,-0.001428181456399,-1.28347736954026e-05,-4.86523558240748e-05,-5.03255696484572e-05,4.26139990938879e-06,-0.000864749979761825,-0.00929224917098104,1.33409326767975e-05,-9.45053120524619e-05,-0.00214327012346072,-7.76990024853319e-06,-0.00101991269592716,-4.86523558240748e-05,0,-2.06839447480789e-05,-0.00258239171693919,-4.0300221989753e-05,-0.00912542550052731,-0.000294856319236203,-0.00247880310930793,-0.000911416556617084,-3.7789108920272e-05,-0.0125553150607809,-0.00110401603905608,6.7483783015021e-06,-0.00708982971496308,-0.000129984428363095,-0.00950782616576262,0,-0.00243668153572241,-0.00168048209205818,-0.00195658746790706,-0.00140357300372163,-0.00176784859223744,-0.00407757769207873,6.45951399569356e-06,-1.28347736954026e-05,-0.0013093300741156,-0.00109388544114619,4.84205423543216e-05,-5.66792108003256e-06,-6.72451358596504e-06,0.000174523547657124,-3.10354654544653e-05,0.00024532629593832,-0.00158668949177265,0,-6.72451358596504e-06,1.93957690086677e-05,-1.1842850468291e-05,-5.66792108003256e-06,1.70845784310814e-05,-3.38512875366348e-05,3.83934245071771e-05,-0.00392571325576263,-8.80425685600983e-06,0.000245836368315544,1.93957690086677e-05,0,-1.91662664814629e-05,0,-0.000229367332225117,3.20880103990007e-05,0.000165448101125953,-0.000585831206718623,-0.00189900537175713,-5.66792108003256e-06,-9.25106947819998e-05,-0.0052664011905339,3.20880103990007e-05,-0.00254466052629532,0,-0.00306437710320928,-0.00173348101474335,-0.000614423142025089,-0.000229367332225117,-0.000238517628120327,-4.84343647153551e-05,0.000115107938758463,-6.4130093158532e-05,0.000154218451168475,0,0.000145582478505268,-0.00307499744677919,1.93957690086677e-05,-0.00353934865898253,6.07851433231943e-05,1.04892504904086e-06,5.80849096598612e-05,-2.42909434611249e-06,-4.78019224345871e-05,0,-0.00548782901156919,0.00014568582529062,-2.0160145389525e-05,-0.000644225513759977,2.05695227446512e-05,-2.11433663155347e-05,-2.97600267638032e-05,-6.31545034854852e-05,7.06851924618945e-05,-0.000644225513759977,7.43278140769021e-05,5.19501019882185e-05,-3.48460749224344e-05,-1.28347736954026e-05,0.000188241866388772,-3.10354654544653e-05,-1.61189337353207e-05,-6.72451358596504e-06,-0.000137498503602451,0.000113698501386317,-3.92154326034344e-05,6.45951399569356e-06,8.33463007854363e-05,-0.000804279445545397,-2.21160985738322e-05,-4.51934665504083e-05,-6.6568161648739e-05,-0.00139862618972941,-1.28347736954026e-05,3.83934245071771e-05,0,1.93957690086677e-05,-0.00155047808208586,-0.00695686376297822,-0.00406825938823552,-0.000516137089873858,-0.000582452603206107,6.45951399569356e-06,1.37058518845379e-05,-0.00444728207715617,1.09977524971328e-05,-1.81615566576809e-05,8.62600628765975e-05,-0.000831337012967559,-1.71458392408397e-05,-0.0026713307397026,-0.00204450840994674,1.93957690086677e-05,2.91429263912235e-05,-0.00487059709260595,-3.38512875366348e-05,-0.00210992693116019,7.54223339294313e-05,-0.00168048209205818
"18:47414683:A:T",-0.00137335883134515,-0.000837950356439521,-4.36717976244339e-05,-4.74116178219575e-05,1.97064875084862e-05,-0.00126097680362847,-0.00288865843896957,-0.00276353395543083,-0.00139723254185187,0.00261971141018424,-0.000837950356439521,-0.00267916582675554,-0.000126763611855374,-0.000452839001908067,-0.00174836343608398,-0.0011779233353284,-5.50679163584533e-05,-0.000350218888145015,-0.000668805865873701,-0.00147731627456071,-4.73463962054055e-05,-0.00012380015661595,-0.00174836343608398,0.268142999379745,1.97064875084862e-05,3.1989730908677e-05,-0.00209304295559587,-0.000751907515110339,1.65162921623718e-05,3.24490208036821e-06,2.59415219234782e-05,-0.00289695318603744,-0.000396821816195825,-0.00292861387488408,4.3158548685085e-05,-0.00415566941422263,-8.63242269879549e-05,-0.000680114525592579,-0.00141840514492309,-0.00261405056044417,-0.00185046005572076,-0.0011734118205462,1.97064875084862e-05,-0.00149455089931827,-2.77269093711396e-05,8.34164025498296e-05,-0.000290079221922923,-4.74116178219575e-05,-0.000680114525592579,-9.90669033518188e-05,-0.00103007463415761,-0.00289695318603744,-0.000488722176588574,0.000338943577159689,-9.99857482408828e-06,-0.0042890870988197,-0.00240385265836229,-0.00208506706817246,0.000855284267803569,-0.00066905346382562,0.000106793358569668,-0.000211651837743076,-0.00253279634640879,-0.00221144914971028,9.98503737559275e-06,-0.00232005905654997,-0.00495410533543161,2.28478741020055e-05,-0.000524638804522581,3.1989730908677e-05,-0.00153965815793633,0.00011626574644108,-4.28210052048072e-05,-0.000563705909662815,-0.00214148726944652,-4.77564722363155e-05,-0.000486661881700101,-0.00144994788293484,-0.0020437618188538,0.000160820828850383,-0.00132517593490178,0,-0.000182966851341781,-0.000340462873658076,-0.00347828781835702,-0.00218411323254974,-0.00342134029472962,-0.0011779233353284,-0.000176394372926048,-0.00328264545635815,2.59415219234782e-05,-0.0017815134430883,-0.00130739784171041,-0.000621971777217123,-0.001108696390272,-5.28186699311206e-05,0,-0.00349751294922651,-0.000117809744922148,-0.000128331461836773,-2.65443581652924e-05,-0.00716987884456444,-0.00093691029776366,-0.00388387458003603,3.1989730908677e-05,-0.000274539964012277,-0.00263592354124587,-0.000209798805617112,-0.00192059112856047,-0.00060789643889958,-0.000167077248618419,-0.00209391990618357,-0.005494593742704,-1.09016773555126e-05,0,-0.0043544599821681,-0.00153512420072044,2.89884706932142e-05,-0.00192059112856047,-0.000352656005914831,-0.00346623425962544,-0.00302072061504344,-0.000157595661375964,-0.00214168381390323,-0.00548993935780873,-5.50679163575651e-05,0,-0.00208254150831166,0,-0.000567725275137931,-9.0504887123366e-05,-0.00114177022198536,-0.00246162495510749,-0.00101521972378293,-1.07110714759884e-05,-0.00115007419004476,-0.00174836343608398,-9.0504887123366e-05,-0.000643001239254204,0,-0.000425332634393705,-0.000254098829232774,0.000172296834406005,-0.000567725275137931,-0.00466963595166625,-0.00129135354944587,6.27047851615714e-05,-0.00135682494022671,-0.00095254989077187,0,-0.000990126837236538,-0.000903843382770386,-5.50679163575651e-05,-0.00214168381390323,-0.000178855175973602,-3.28236150792804e-06,-0.000874757966609074,-0.00271218995752776,-0.000839850169195522,0,-0.000599314950308738,-0.000591608111050412,-0.00197184202540868,8.85376028820772e-05,-0.001557468306145,-0.00227392409775451,-0.00198204587011475,-0.00175063425573629,-0.000819108081616449,8.85376028820772e-05,-0.000223332938928067,-0.00479445329355688,-0.00196765922604625,3.1989730908677e-05,-0.00110702735069879,-0.00453815195237439,3.38955632495086e-05,-0.00197111044399723,-0.0025870899693774,-0.000272464330858924,9.35065024600945e-05,-2.60005722205747e-05,-0.00162543257923531,-0.00279983735310907,5.19956925781884e-05,-8.72313927278157e-05,-0.00116929292764745,-0.000201683763326521,3.1989730908677e-05,-0.00500378390361877,0,-5.50679163575651e-05,-0.00346614892720698,-0.00209304295559587,-0.00717278542352284,-0.00886426603868351,-0.00626285384757974,-2.60005722205747e-05,-3.63623961456838e-05,-0.00143874582979731,-6.64977962632207e-05,4.01196427990413e-05,-0.000263447339938772,8.59964597719198e-05,-4.88016732482777e-05,-0.000450616643786539,-0.00544251261469508,-5.50679163575651e-05,-0.00147920112075894,-0.00505835276986266,-0.00193148040194568,-0.00514631663879506,-0.00207578190092406,-0.000117809744922148
"18:47417485:T:A",5.92856881009851e-06,-0.00158719001074648,5.92856881009851e-06,6.35576771124136e-06,6.2070843197759e-05,-9.58169582432333e-06,-0.00215000741888804,-0.0033484779925903,-0.00168601762312282,1.9209386685759e-05,-0.00158719001074648,3.78027048641982e-05,1.60028430382653e-05,-0.00260364842098326,-8.80425685600983e-06,5.50463292636749e-06,-0.00450329378169378,-0.00241950843891292,-0.00168999700075911,-0.00140680400099757,-1.14567640885355e-06,-1.2232381790156e-05,-8.80425685600983e-06,1.97064875084862e-05,0.179490617580613,-4.87614766786493e-06,-3.67455191074839e-06,-0.00163743110722603,-2.85644279873765e-06,-1.17794829890272e-06,-4.07845553240804e-06,3.41628060018806e-05,-0.00252679205338247,-0.00341412227187021,-7.20770652407055e-06,5.23006375807711e-06,1.12795477162919e-05,-0.0016477886312094,-3.03151406404467e-05,1.23522016881594e-06,-8.41039028998125e-06,-0.00116056267658315,6.2070843197759e-05,1.02873413636573e-05,3.36157746172461e-06,-0.00354369654224573,3.36157746172461e-06,6.35576771124136e-06,-0.0016477886312094,1.26093372072589e-05,-2.00940815213713e-05,3.41628060018806e-05,-0.00163917910018174,-7.9570180354871e-05,1.23522016881594e-06,-0.00211717755724994,-0.000337477243361306,-0.0016610422402632,3.36853081810418e-05,3.61388839849042e-05,-1.82787060287737e-05,-0.00184917962359066,1.68999694221128e-05,-0.00169687726266066,-2.02434457818867e-06,1.26093372072589e-05,-0.00164564893917785,-0.00312680246919683,4.82768550513768e-05,-4.87614766786493e-06,-1.90152092685025e-05,-1.97378469808385e-05,1.65363661164264e-06,-0.00158117392286705,-0.000279879984645071,5.12599105295664e-06,-0.00179070784662372,-0.000525868506135119,-0.00176038434222914,-2.93204471732977e-05,-0.00102466469661167,0,-0.00174038177958646,1.21628615339375e-05,-1.50837300241236e-05,-9.25118256382973e-05,-3.1907035006995e-05,5.50463292636749e-06,-1.90152092685025e-05,-0.00155847339224024,-4.07845553240804e-06,-1.30130628201997e-05,2.81632690324329e-06,5.25832694817652e-05,-0.000868053993320572,-0.00360988725265354,0,-0.00513084518956841,1.51177623033405e-05,-0.00146467312937126,-0.00319562047150335,-0.00206745871578029,-0.00404815535775871,2.50068447016361e-06,-4.87614766786493e-06,2.8034383324993e-05,-3.51672000560299e-05,1.73530861209414e-05,-0.00268215363962288,-2.44216150324661e-06,-0.00132883290893471,-1.18365816517141e-05,-0.00665701420245135,-0.00194474692766367,0,-2.44216150324661e-06,7.22006821263221e-06,-4.47897512501072e-06,-2.02434457818867e-06,6.35576771124136e-06,-0.00124143500960461,-0.00208006291686313,-0.00419788197026882,-3.26722690680015e-06,-0.00654450624996628,7.22006821263221e-06,0,-7.20770652407055e-06,0,-0.00239665063707584,1.17196056717006e-05,-0.00150939236104808,-4.38837545884141e-05,-0.00212606953246741,-2.02434457818867e-06,-0.00194074810206857,-8.80425685600983e-06,1.17196056717006e-05,-0.00298002632746286,0,-0.00197003889877312,-0.002278372745665,-3.12798770645273e-05,-0.00239665063707584,-0.00400332015785665,-0.00487166068969636,3.79037801865323e-05,-0.0030355875320085,-0.00160256074812182,0,-0.00258757076573879,-0.0016329416669576,7.22006821263221e-06,-3.26722690680015e-06,2.14274506831202e-05,4.084350075928e-07,2.05218567197463e-05,-7.49290318680096e-07,-0.00143841922471477,0,-1.18365816526023e-05,-8.25260331538402e-06,-7.6121570797838e-06,-1.45320244060443e-05,7.65722661366652e-06,-8.01303759523364e-06,-0.00330621789778096,9.14306857779934e-07,-7.31312929982408e-05,-1.45320244060443e-05,2.57412780682031e-05,-0.00214311008574875,-0.00340504860035296,-4.87614766786493e-06,-0.00155426959096072,-1.18365816517141e-05,-5.97250475564692e-06,-2.44216150324661e-06,-0.00165630015401153,-1.52710110139509e-05,-1.52710110139509e-05,2.50068447016361e-06,2.84817992080022e-05,-3.06399824818726e-05,-8.41039028998125e-06,-0.00309526421480211,5.29703787073288e-05,-0.000837026528427209,-4.87614766786493e-06,-0.00222809806141289,0,7.22006821263221e-06,-0.00758108263571344,-3.67455191074839e-06,-0.00295648473878352,-0.000358700789903743,-6.34886974832938e-05,2.50068447016361e-06,5.08393166676058e-06,-1.93782380772944e-05,4.23658809012295e-06,-6.79964320760007e-06,2.93832904620928e-05,-1.41574725454063e-05,-6.38792387253062e-06,-0.000373211274946605,-0.00155691473669783,7.22006821263221e-06,1.08134557610384e-05,-3.66809557839076e-07,-1.30130628210878e-05,-0.00161194590237734,-8.60373685167559e-05,1.51177623033405e-05
"18:47417693:C:A",9.09020117845216e-06,-0.000961415474489691,9.09020117845216e-06,9.75585167406479e-06,-4.87614766786493e-06,-1.39172413762267e-05,4.87700451756723e-05,-0.000115544266845902,-6.51559618907172e-05,3.11121879317255e-05,-0.000961415474489691,6.88135511230925e-05,2.56504295226279e-05,7.9693854678986e-05,-1.28347736954026e-05,8.43188385601934e-06,1.11096478940809e-05,6.33083759469244e-05,-0.000841585267325584,2.44156669060303e-05,-1.8772382386345e-06,-1.76534838702835e-05,-1.28347736954026e-05,3.1989730908677e-05,-4.87614766786493e-06,0.00721652618652868,-5.46561927272649e-06,-0.000902144718691211,-4.28001780239384e-06,-1.82660711889326e-06,0.000169996328363453,6.05966798543633e-05,7.09618174310478e-05,-0.000105377994557898,-1.05953242170997e-05,7.70182162401767e-06,1.7691803494202e-05,-0.000923410582264417,-4.13627264936878e-05,1.84244523282473e-06,-1.22843831880104e-05,-9.65304003930356e-05,-4.87614766786493e-06,1.58932697651437e-05,5.05372057624243e-06,-1.97551825218412e-05,5.05372057624243e-06,9.75585167406479e-06,-0.000923410582264417,1.98720172557287e-05,-2.82244393945419e-05,6.05966798543633e-05,-3.46965517765696e-05,-9.68913680177153e-05,-0.000390881486420191,5.45763386963216e-05,-7.17109624126522e-05,1.27173558999161e-05,5.92592779131706e-05,-3.61956458112545e-05,-2.58461877997718e-05,-4.45914104414413e-05,2.71877142008492e-05,2.18719248428201e-05,-3.06732684940414e-06,1.98720172557287e-05,-1.17885650023908e-05,-5.46561927272649e-06,-9.57817013267359e-05,-7.19518179792544e-06,-2.68138113037608e-05,-2.77595479065695e-05,2.47033254652251e-06,-1.35087775348097e-05,6.67253840376247e-05,7.75810806885602e-06,-5.08362094873149e-05,-9.78950429857406e-05,-4.28001780239384e-06,-4.01318248313132e-05,-2.6813811304649e-05,0,3.44907502540792e-05,-0.000798109705553607,-2.17132348261373e-05,-7.42094136541027e-06,-4.33211669559341e-05,8.43188385601934e-06,-2.68138113037608e-05,-2.06515388532225e-05,-6.04854356645035e-06,-1.87163716427463e-05,-6.82313398163714e-05,-0.00028434867220728,-6.93140077512311e-05,7.34173580108077e-05,0,-0.000497741925171269,2.41471140718374e-05,0.000100899588243664,-0.000199664010472667,5.70522680796159e-05,-6.26060310926491e-05,3.7474149809924e-06,-7.19518179792544e-06,4.78874611324898e-05,-4.73746678517628e-05,2.79694569185196e-05,-3.06732684940414e-06,-3.67711621596101e-06,0.000106931130046561,-1.71127480177447e-05,-0.000148663989067543,7.42898119021618e-07,0,-3.67711621596101e-06,1.1109647894969e-05,0.000362813790874661,-3.06732684940414e-06,9.75585167406479e-06,-1.87163716427463e-05,2.23250587803037e-05,-5.38189019412272e-05,-4.87614766786493e-06,-0.000132946996441952,1.1109647894969e-05,0,-1.05953242170997e-05,0,5.54474451597287e-06,1.84103887521658e-05,0.000100899588243664,-5.77723016919052e-05,2.21277225627148e-05,-3.06732684940414e-06,-0.000201792192958905,-1.28347736954026e-05,1.84103887521658e-05,0.000133009969691678,0,-0.000192416813089125,1.46314457589725e-05,-4.25512697175279e-05,5.54474451597287e-06,3.46581292554049e-06,0.000110124942825252,6.87338380878089e-05,-0.000170353959217273,9.35146915956864e-05,0,8.8817516160411e-05,-3.50280675585068e-05,1.1109647894969e-05,-4.87614766786493e-06,-0.00124498761903613,6.07392329321499e-07,3.36318596998453e-05,-1.19543099152963e-06,0.000331578705728752,0,-1.71127480177447e-05,8.84210664926499e-05,-1.11647665104186e-05,-2.0770725516428e-05,1.17980485025981e-05,-1.17277497375667e-05,-3.77459335387798e-05,-3.42485754192268e-05,4.12684962158849e-05,-2.0770725516428e-05,-0.00144412253353643,3.02453943428205e-05,-5.91770914670775e-06,-7.19518179792544e-06,0.000116283366920378,-1.71127480177447e-05,-8.8471117924982e-06,-3.67711621596101e-06,-0.000172656381650427,-2.17637737822685e-05,0.00182032951166811,3.7474149809924e-06,4.87706044438596e-05,-4.17635048259868e-05,-1.22843831880104e-05,0.000441878615935032,-3.65751207551668e-05,3.99515093123526e-05,-7.19518179792544e-06,2.23250587803037e-05,0,1.1109647894969e-05,6.11955274365528e-06,-5.46561927272649e-06,0.000177233584905956,0.00028249962798288,-7.99074797308563e-05,3.7474149809924e-06,7.78077916763209e-06,-2.72893687878195e-05,6.39026415072408e-06,-1.00193110492697e-05,5.05667891985695e-05,-2.02658133652278e-05,-9.43661260155437e-06,-5.29041153773946e-05,0.000104743007378616,1.1109647894969e-05,1.68442324088858e-05,8.2728733207027e-05,-1.87163716427463e-05,9.59835108034213e-05,4.44749686812074e-05,2.41471140718374e-05
