"","15:52501103:C:G","15:52501831:G:A","15:52501850:A:G","15:52502160:A:T","15:52503371:T:C","15:52503850:C:T","15:52504507:C:T","15:52505159:G:A","15:52505997:A:G","15:52508412:T:G","15:52510669:C:T","15:52512557:A:G","15:52514293:C:T","15:52514773:C:T","15:52515502:G:A","15:52516681:G:A","15:52516942:C:A","15:52516993:A:G","15:52519709:G:A","15:52521383:C:T","15:52521553:G:A","15:52525212:C:T","15:52525282:C:G","15:52525375:C:T","15:52529031:T:C","15:52530586:C:A","15:52532599:C:G","15:52533066:G:A","15:52534344:G:A","15:52541842:T:G","15:52541903:T:C","15:52542004:A:G","15:52542597:G:A","15:52543615:G:T","15:52543923:G:A","15:52544124:A:C","15:52549762:G:A","15:52559874:C:T","15:52565388:T:C","15:52566703:T:C","15:52567523:T:C","15:52567631:G:A","15:52567851:G:A","15:52577658:G:A","15:52578034:C:T","15:52582593:A:T","15:52583725:A:G","15:52587740:G:T"
"15:52501103:C:G",0.0458609530025971,-0.00657453694064536,-6.67374695106915e-05,0.00011863812555557,1.8410388753054e-05,-1.76080958969038e-06,-0.00134943807885346,7.17087378783177e-05,0,-6.45028580423812e-05,-0.00179415291732621,-0.00524913661503312,-8.07701239882164e-05,-0.00189258999836195,-1.76080958969038e-06,2.72830538206037e-05,-3.01634273185414e-05,-0.000135436745388517,0,3.20880103998888e-05,2.39759069025069e-05,-0.00579704866848463,-0.00187303145534479,-0.00765434657457842,-9.34578031506206e-05,1.8410388753054e-05,-5.38793422775186e-05,6.90801377043471e-05,-0.00548108985241313,-8.18919243084082e-05,-0.00158231100310591,-1.76080958969038e-06,6.06532535396553e-06,-7.1772539369519e-06,1.8410388753054e-05,8.8813725610315e-05,7.17087378783177e-05,-0.000201157807240726,-2.03947845598407e-05,-0.00213239816822597,-0.0026780926769483,-0.00156449389585678,6.06532535485371e-06,3.68056127992844e-05,-5.38793422775186e-05,-1.47280461035848e-05,-5.38793422775186e-05,0.00011758867621392
"15:52501831:G:A",-0.00657453694064536,0.131495258474835,-0.00377297954821465,-0.000360171882042959,4.82669361190347e-06,-8.01868653255156e-07,-0.00735899784008032,-2.43059499167586e-05,0,-7.172242704101e-05,-0.000526590565568696,-0.00116500113573714,-0.00357895758165139,-0.00287877095295874,-8.01868653255156e-07,-0.00604045498773065,-0.00217812664668315,-0.00429946289189065,0,-0.00336836640483451,-0.00327807203473451,-0.00405299581985874,-0.00297913755314561,-0.00870877808806636,-0.000802460253151338,4.82669361190347e-06,-0.00320766287367391,-0.000252482687468358,-0.0117690411739795,-0.00745495558001208,-0.000765428309314586,-0.00412768923911422,-0.000554680899424564,-0.000118143725403641,4.82669361190347e-06,-0.00681009034704694,-2.43059499167586e-05,-0.00570999542463069,-1.35852415104054e-05,-0.0015696101257765,-0.00496090426581652,-0.00430318127448626,1.59318563688338e-05,-0.000135192390838146,-0.00320766287367391,-0.00576491955747294,-0.00799215443745727,-0.000762490793763337
"15:52501850:A:G",-6.67374695106915e-05,-0.00377297954821465,0.0365224315987467,0.000162363743232419,2.48945964180791e-05,-2.44070924981798e-06,-0.00373494670008423,9.768206449845e-05,0,-8.64743254052058e-05,0.000259998468818523,-0.00658082309106689,-0.000108473555309629,3.46977187533071e-05,-2.44070924981798e-06,3.65239225201819e-05,0.000882633367699448,-0.000180462344625099,0,4.32725699965886e-05,-0.00354279216848941,-0.00160807733929769,0.000200177553567826,-0.00126091166924258,-0.000124965813213862,2.48945964180791e-05,-7.2660648076095e-05,9.39211698316456e-05,-0.00447385093831443,-0.00283238146553977,4.76377457339083e-05,-2.44070924981798e-06,6.84769474368352e-06,-9.94031986234489e-06,2.48945964180791e-05,-0.000441105396697949,9.768206449845e-05,-0.00276466839560463,-2.74904783204022e-05,-0.00331264024057987,-2.38843255004895e-05,-0.00357797191578069,6.84769474368352e-06,4.90368003260855e-05,-7.2660648076095e-05,-2.03744681694928e-05,-7.2660648076095e-05,0.000160818073842606
"15:52502160:A:T",0.00011863812555557,-0.000360171882042959,0.000162363743232419,0.0453568436555174,0.00044187861593592,3.30548483873372e-06,-0.00283747544774116,-0.000244112493098747,0,0.000158208307809993,-0.00137948577260172,-0.00596784484015078,-0.00187519341100373,-0.00305089710494055,-0.00337581310977875,-8.1150273680386e-05,6.99160166242052e-05,-0.00194203985168073,0,-0.00101882557073374,-7.51005805135208e-05,-0.000569135393956088,-0.0122508797618046,8.34232213291486e-05,0.000222689327701531,0.00044187861593592,0.000126716280406391,0.00168968721841356,-0.000521042427575225,-7.67039159423888e-05,-9.56909302942677e-05,-0.00337581310977875,-4.26448686967618e-05,1.34406046372604e-05,0.00044187861593592,-0.000272967504520771,-0.000244112493098747,0.000122508226859885,5.16332348459159e-05,-0.000214738031817596,-0.00313665717828471,-0.00322558683449614,-4.26448686967618e-05,-0.000116308487037031,0.000126716280406391,-0.00151679208591915,-0.00191464488053406,0.000192747534433657
"15:52503371:T:C",1.8410388753054e-05,4.82669361190347e-06,2.48945964180791e-05,0.00044187861593592,-0.0023162178964462,6.07392329321499e-07,5.7475428540954e-06,-2.86841319576681e-05,0,2.41471140718374e-05,-7.99074797299681e-05,9.13439872309851e-05,2.95598960855514e-05,-1.19467893080483e-05,-0.00204121466972396,-1.11647665104186e-05,1.1109647894969e-05,4.87703463010192e-05,0,-1.28347736954026e-05,-1.00193110492697e-05,-8.5553898205859e-05,-6.44889161778295e-05,2.99480777465888e-05,3.44421869211686e-05,0.00182032951166811,1.98720172566169e-05,0.000761790498031267,0.000814269632988918,8.63489533386996e-06,-1.39172413762267e-05,-0.00204121466972396,-3.87122458889166e-06,2.47033254652251e-06,0.00182032951166811,-3.7081721210086e-05,-2.86841319576681e-05,5.43506130288307e-05,7.78077916763209e-06,-2.88288036927042e-05,4.83352495628253e-06,0.000312799033566513,-3.87122458889166e-06,-1.54520496327137e-05,1.98720172566169e-05,5.05372057624243e-06,1.98720172566169e-05,0.000397009108119128
"15:52503850:C:T",-1.76080958969038e-06,-8.01868653255156e-07,-2.44070924981798e-06,3.30548483873372e-06,6.07392329321499e-07,0.0100583168651474,6.89931303199387e-07,2.17290302906292e-06,0,-2.35771771972537e-06,-0.000156029488774578,3.4874605780999e-06,-2.96995757498308e-06,9.49925309967625e-07,-5.51981402807655e-08,9.13509867750406e-07,-1.03411766527728e-06,-5.29395238579866e-06,0,1.04892504904086e-06,8.19219116543479e-07,4.57007755461092e-06,3.93905481654855e-06,-3.11125644625321e-06,-3.51791426389525e-06,6.07392329321499e-07,-1.9166755125255e-06,2.10994640070794e-06,-3.55928825523932e-06,-0.00381332160252335,-0.00239913397667202,-5.51981402807655e-08,2.93452782962333e-07,-2.26514956125357e-07,6.07392329321499e-07,2.66237892176946e-06,2.17290302906292e-06,-0.00370282321448112,-7.06302828668015e-07,2.15579986306835e-06,4.89448392926306e-06,4.28302188026919e-06,2.93452782962333e-07,1.23093845072475e-06,-1.9166755125255e-06,-4.69131523850308e-07,-1.9166755125255e-06,3.28633474211415e-06
"15:52504507:C:T",-0.00134943807885346,-0.00735899784008032,-0.00373494670008423,-0.00283747544774116,5.7475428540954e-06,6.89931303199387e-07,0.153524606083848,-0.000955941702960317,0,-0.000712133712811536,-0.00739671052216018,-0.0068535820782798,-0.000384578487875764,-0.00512793729656469,-0.00386431717587055,-0.000298021682021421,-0.00338485151040047,-0.000157521377302849,0,-0.00404666485518401,-8.54506327705451e-05,-0.00636036913483284,-0.000767895857212153,-0.00604569773282648,-1.9169067329905e-05,5.7475428540954e-06,-0.000187291464028405,-0.00229348347706981,-0.0165318599336177,-2.97187244040487e-05,-0.000950097760727964,-0.00394010729428995,-0.00247841049396946,-0.00222507690292417,5.7475428540954e-06,-0.00641114203627691,-0.000955941702960317,-6.48691055094019e-05,-9.97076951492204e-06,-0.00478418171774031,-0.0154362998388233,-0.0213116890436935,-0.00224257210708334,-0.00110266655156721,-0.000187291464028405,-0.000624493925641012,-0.0100414002412279,7.72680454730335e-06
"15:52505159:G:A",7.17087378783177e-05,-2.43059499167586e-05,9.768206449845e-05,-0.000244112493098747,-2.86841319576681e-05,2.17290302906292e-06,-0.000955941702960317,0.0331543095986744,0,9.49678158743694e-05,-0.000325593234435928,0.000234818104566159,0.000114619470889643,-5.26879092577204e-05,2.17290302906292e-06,-4.60818998355705e-05,4.27030249054994e-05,0.000189227951322479,0,-0.00355339467748106,-4.20481641061343e-05,-0.000630961094865157,-0.00396984046111815,0.000107079815006905,0.000134731971650481,-2.86841319576681e-05,7.69936107740676e-05,0.000139499103683605,0.000304805871823355,-0.001352990691875,-5.57748777403333e-05,2.17290302906292e-06,-0.00785254539124125,8.83715734456558e-06,-2.86841319576681e-05,-0.000153224435414323,0.00365869070431835,-0.00139457922472186,3.0724407713123e-05,-0.00035685538045982,-0.00109387468630384,-0.000835172386820737,-0.00775572254252133,-0.000446637747654854,7.69936107740676e-05,1.80779406981912e-05,-0.0070465597763425,-0.00028803254743881
"15:52505997:A:G",0,0,0,0,0,0,0,0,0,0,0,0,0,0,0,0,0,0,0,0,0,0,0,0,0,0,0,0,0,0,0,0,0,0,0,0,0,0,0,0,0,0,0,0,0,0,0,0
"15:52508412:T:G",-6.45028580423812e-05,-7.172242704101e-05,-8.64743254052058e-05,0.000158208307809993,2.41471140718374e-05,-2.35771771972537e-06,-0.000712133712811536,9.49678158743694e-05,0,0.0262081073154423,0.000254148778041419,-0.00094682026671844,-0.000104692214868862,3.38095028844521e-05,-2.35771771972537e-06,3.54837585296863e-05,-3.95541241804409e-05,-0.000173814595716415,0,4.2017981439102e-05,-0.0047659395194195,0.000264048643671799,-0.000743886042751107,-0.000696698003632257,-0.000120599481260086,2.41471140718374e-05,-7.02004431722969e-05,9.13134695403883e-05,-0.00740912458149268,-0.00300780861242522,4.6246318899712e-05,-2.35771771972537e-06,6.79146801907393e-06,-9.59961935098619e-06,2.41471140718374e-05,0.000116946202057377,9.49678158743694e-05,-0.00281721334232721,-2.66150414232058e-05,8.99946366050841e-05,-0.000614798523286275,-0.0029304819795426,-0.000838288332801085,4.7688201081364e-05,-7.02004431722969e-05,-1.96684701361249e-05,-7.02004431722969e-05,-0.00123907100067733
"15:52510669:C:T",-0.00179415291732621,-0.000526590565568696,0.000259998468818523,-0.00137948577260172,-7.99074797299681e-05,-0.000156029488774578,-0.00739671052216018,-0.000325593234435928,0,0.000254148778041419,0.0634892046100988,-0.00114549478889003,-0.00201058175264635,-0.00442104243753683,4.45093053258461e-06,-0.000138989654834276,-0.00147125039351259,-0.00171332438507754,0,-0.000150305484575952,-0.000131225324102147,-0.000289702840015948,-0.000596007667459375,-0.00131863707111268,-0.00607986565652219,-7.99074797299681e-05,-0.00217858286528205,-0.000827616409193155,-0.0029374448110886,-0.000137766506951742,-0.000703868551380715,4.45093053169643e-06,-8.95121417245903e-05,-0.000753267995029283,-7.99074797299681e-05,-0.00367020629403481,-0.000325593234435928,0.000179178441426231,8.33520602796511e-05,-0.000926734269308227,-0.00148004173763638,-0.00441656034457827,-8.95121417245903e-05,-0.00331469429026576,-0.00217858286528205,-0.0053586101815668,-0.00217858286528205,-0.00142289431862075
"15:52512557:A:G",-0.00524913661503312,-0.00116500113573714,-0.00658082309106689,-0.00596784484015078,9.13439872309851e-05,3.4874605780999e-06,-0.0068535820782798,0.000234818104566159,0,-0.00094682026671844,-0.00114549478889003,0.130136508934519,-0.000815660363826076,-0.00644272157248782,-0.00372338965866348,2.08923971536379e-05,-0.00740678720040311,-0.00308288601432771,0,-0.00284126349211444,-0.00482040564713948,-0.00117858338796317,-0.000704916151303525,-0.00139813938320099,-0.00111996312161988,9.13439872309851e-05,4.72141910483614e-05,-0.00351658218861584,-0.00705393721443004,-0.000456102935736613,-0.000107283340724074,-1.36240474821747e-05,-0.0111217937495489,-0.00523053067993384,9.13439872309851e-05,-0.0101163020018085,0.000234818104566159,-0.000366797123179108,5.45913146643429e-05,-0.000566150127458087,-0.0013315625338608,-0.000958068413801083,-0.0137578570222274,-0.00338317065021965,4.72141910483614e-05,1.1922422766375e-05,-0.0103347299463934,-0.00130758829825783
"15:52514293:C:T",-8.07701239882164e-05,-0.00357895758165139,-0.000108473555309629,-0.00187519341100373,2.95598960855514e-05,-2.96995757498308e-06,-0.000384578487875764,0.000114619470889643,0,-0.000104692214868862,-0.00201058175264635,-0.000815660363826076,0.0627858808886099,-0.00120334398264887,-2.96995757498308e-06,-0.00197364527612987,-4.94710480900551e-05,-0.000222294847357141,0,-0.00254052415504891,3.73623103291365e-05,-0.00726499114106716,-0.00571308599371356,-0.00579079517622194,-0.000803284090909351,2.95598960855514e-05,-0.000223547413850333,-0.00165386834752113,-0.00158321916820636,-0.000158260025816759,5.63136652900198e-05,-0.00336429265585814,-0.00385331055306715,-0.00163957074331833,2.95598960855514e-05,-0.00415990348201145,0.000114619470889643,-0.000359284133399029,-3.29659457634079e-05,-0.00214986494675262,-0.00148921210910924,-0.00208698739911473,-0.0036502458651464,5.73364433744672e-05,-0.000223547413850333,-9.5046511250807e-05,-0.00120295608525733,-0.00080244602083912
"15:52514773:C:T",-0.00189258999836195,-0.00287877095295874,3.46977187533071e-05,-0.00305089710494055,-1.19467893080483e-05,9.49925309967625e-07,-0.00512793729656469,-5.26879092577204e-05,0,3.38095028844521e-05,-0.00442104243753683,-0.00644272157248782,-0.00120334398264887,0.0848733578730205,9.49925309967625e-07,-1.90841576896972e-05,1.66944955708459e-05,-0.0014672477078177,0,-2.1997223083936e-05,-0.0017057283297115,-0.000103176295056073,-0.0103874390715157,-0.00564679591332862,4.52720301815646e-05,-1.19467893080483e-05,-0.00252888934821094,-5.08776364389618e-05,-0.00941767081815215,-0.00217274904963549,-0.000952297879857511,9.49925309079447e-07,-0.00103277807759028,-0.00212680833326129,-1.19467893080483e-05,-0.00182504803183825,-5.26879092577204e-05,-0.00135729173965515,-6.93593947316273e-05,-0.00125925117244119,-0.000505504871940232,-0.0071201946111783,-0.000911652126784013,-0.00168687832709669,-0.00252888934821094,-0.00201897944868623,2.84903217604437e-05,-0.00296006327224863
"15:52515502:G:A",-1.76080958969038e-06,-8.01868653255156e-07,-2.44070924981798e-06,-0.00337581310977875,-0.00204121466972396,-5.51981402807655e-08,-0.00386431717587055,2.17290302906292e-06,0,-2.35771771972537e-06,4.45093053258461e-06,-0.00372338965866348,-2.96995757498308e-06,9.49925309967625e-07,0.040282767561993,9.13509867750406e-07,-1.03411766527728e-06,-5.29395238579866e-06,0,1.04892504904086e-06,-0.00418730253690569,4.57007755461092e-06,3.93905481654855e-06,-3.11125644625321e-06,-3.51791426389525e-06,-0.00204121466972396,-1.9166755125255e-06,-0.00307788855443913,-0.00310243273986366,-1.02735895080031e-06,1.1353983699891e-06,-0.00591124593311232,2.93452782962333e-07,-2.26514956125357e-07,-0.00204121466972396,2.66237892176946e-06,2.17290302906292e-06,-6.30656995692647e-06,-7.06302828668015e-07,2.15579986306835e-06,-4.75872534266841e-07,-0.00348530130187186,2.93452782962333e-07,1.23093845072475e-06,-1.9166755125255e-06,-4.69131523850308e-07,-1.9166755125255e-06,-0.00342111691369862
"15:52516681:G:A",2.72830538206037e-05,-0.00604045498773065,3.65239225201819e-05,-8.1150273680386e-05,-1.11647665104186e-05,9.13509867750406e-07,-0.000298021682021421,-4.60818998355705e-05,0,3.54837585296863e-05,-0.000138989654834276,2.08923971536379e-05,-0.00197364527612987,-1.90841576896972e-05,9.13509867750406e-07,0.0272911795027042,1.66307731364057e-05,-0.00184194919583813,0,-2.0160145389525e-05,-1.57820093837913e-05,-0.000358876377545059,-0.00359350405569181,-0.000106522209687654,4.96778290628441e-05,-1.11647665104186e-05,2.93550705494638e-05,-4.45824735271216e-05,-0.00167531958216571,-0.000677771851226971,-2.18521670278804e-05,9.13509867750406e-07,-0.00148561833030936,3.70528725834873e-06,-1.11647665104186e-05,-0.000180795195581673,-4.60818998355705e-05,-0.000829688051707578,1.17616158847866e-05,-4.67627454732167e-05,-0.00178069601350384,-0.000281565510404036,-0.00156300370948959,-0.000126351050681706,2.93550705494638e-05,-0.00183593262906978,-0.00231031673090953,-8.05346448702338e-05
"15:52516942:C:A",-3.01634273185414e-05,-0.00217812664668315,0.000882633367699448,6.99160166242052e-05,1.1109647894969e-05,-1.03411766527728e-06,-0.00338485151040047,4.27030249054994e-05,0,-3.95541241804409e-05,-0.00147125039351259,-0.00740678720040311,-4.94710480900551e-05,1.66944955708459e-05,-1.03411766527728e-06,1.66307731364057e-05,0.0363319799571347,-8.39780419887859e-05,0,1.93957690086677e-05,-0.00448738679434602,-0.00579038954494848,8.73961958438585e-05,-0.000612680410851496,-5.75846067141228e-05,1.1109647894969e-05,-3.27874291849994e-05,4.12331363488505e-05,-0.00439597176784812,-0.000623931827894886,2.11784200834231e-05,-1.03411766527728e-06,4.34365346091425e-06,-4.22045053483089e-06,1.1109647894969e-05,-0.000422431771750276,4.27030249054994e-05,-0.000578343103184054,-1.23904191742241e-05,-0.00176483439229269,-9.43998013180902e-06,-0.00419243385234846,4.34365346091425e-06,2.25261997393034e-05,-3.27874291849994e-05,-8.67552465688703e-06,-3.27874291849994e-05,6.93548481969231e-05
"15:52516993:A:G",-0.000135436745388517,-0.00429946289189065,-0.000180462344625099,-0.00194203985168073,4.87703463010192e-05,-5.29395238579866e-06,-0.000157521377302849,0.000189227951322479,0,-0.000173814595716415,-0.00171332438507754,-0.00308288601432771,-0.000222294847357141,-0.0014672477078177,-5.29395238579866e-06,-0.00184194919583813,-8.39780419887859e-05,0.0457378950926914,0,8.31506855512032e-05,-0.0017073950539519,-0.00153032929058305,-0.00322795977417289,-0.000164046902590975,-0.000253759616904325,4.87703463010192e-05,-0.001155908079296,0.00018109940051847,-0.00460443036599756,-0.00198716420151879,9.26004417118875e-05,-5.29395238579866e-06,-0.00120243061314973,-2.15969629149271e-05,4.87703463010192e-05,0.000224355883995386,0.000189227951322479,-0.00240819439659745,0.000559686996175479,-0.00217072626701587,-0.00140846408208173,-0.00619572858713724,-0.00126714348514145,-0.00164509531254087,-0.001155908079296,-0.000138390312974579,-0.000148444189790986,0.000305859987633106
"15:52519709:G:A",0,0,0,0,0,0,0,0,0,0,0,0,0,0,0,0,0,0,0,0,0,0,0,0,0,0,0,0,0,0,0,0,0,0,0,0,0,0,0,0,0,0,0,0,0,0,0,0
"15:52521383:C:T",3.20880103998888e-05,-0.00336836640483451,4.32725699965886e-05,-0.00101882557073374,-1.28347736954026e-05,1.04892504904086e-06,-0.00404666485518401,-0.00355339467748106,0,4.2017981439102e-05,-0.000150305484575952,-0.00284126349211444,-0.00254052415504891,-2.1997223083936e-05,1.04892504904086e-06,-2.0160145389525e-05,1.93957690086677e-05,8.31506855512032e-05,0,0.071190112316005,-1.81615566576809e-05,-0.00237157906074259,-0.000392632978367224,-0.00295253401455042,5.94281785497586e-05,-1.28347736954026e-05,3.4557445749428e-05,-0.000681119571387612,-0.000586442131633724,-0.00329333950448163,-2.49730039518781e-05,-0.00490520235064817,-0.00336746886254335,4.26139990938879e-06,-1.28347736954026e-05,-0.00354170396787357,-0.00355339467748106,-0.00343857885636023,1.37058518845379e-05,-0.0011731247504212,-0.00838105197601902,-0.00111534016235115,-0.00327064601382521,-0.0012926952094352,3.4557445749428e-05,8.7044661425395e-06,-0.00854397992654921,-0.00106337506567122
"15:52521553:G:A",2.39759069025069e-05,-0.00327807203473451,-0.00354279216848941,-7.51005805135208e-05,-1.00193110492697e-05,8.19219116543479e-07,-8.54506327705451e-05,-4.20481641061343e-05,0,-0.0047659395194195,-0.000131225324102147,-0.00482040564713948,3.73623103291365e-05,-0.0017057283297115,-0.00418730253690569,-1.57820093837913e-05,-0.00448738679434602,-0.0017073950539519,0,-1.81615566576809e-05,0.0586585634180432,-0.00565596583099914,2.35187117834101e-05,-0.000145020541157059,4.29712896377055e-05,-1.00193110492697e-05,2.57707955721997e-05,-4.06448440610774e-05,-0.00204180269009058,-0.000229236731398075,-1.97125047955993e-05,8.19219116543479e-07,-7.75424867498486e-05,3.31791029406503e-06,-1.00193110492697e-05,-0.00316745726913492,-4.20481641061343e-05,-0.000149540561057648,1.0426605403957e-05,-0.00286515876078308,-0.00228519724612841,-0.0104069367653201,-0.00122672016436542,-0.00156549240468618,2.57707955721997e-05,6.74794877841833e-06,2.57707955721997e-05,-7.45096759091624e-05
"15:52525212:C:T",-0.00579704866848463,-0.00405299581985874,-0.00160807733929769,-0.000569135393956088,-8.5553898205859e-05,4.57007755461092e-06,-0.00636036913483284,-0.000630961094865157,0,0.000264048643671799,-0.000289702840015948,-0.00117858338796317,-0.00726499114106716,-0.000103176295056073,4.57007755461092e-06,-0.000358876377545059,-0.00579038954494848,-0.00153032929058305,0,-0.00237157906074259,-0.00565596583099914,0.121346057166666,-0.0049420667965423,-0.0106377103738389,-0.00492505047337755,-8.5553898205859e-05,-0.00428242351974628,-0.00089598681835934,-0.00869158965120942,-0.00633420954339226,-0.000170109089634884,4.57007755461092e-06,-0.00452160861211937,-0.00275619585806819,-8.5553898205859e-05,-0.000953791113990299,-0.000630961094865157,-0.00623522755955408,8.78848940377708e-05,-0.00143133452736777,-6.84966996731262e-05,-0.00268432109612737,-0.00548722414852509,-0.00309208173273401,-0.00428242351974628,-0.000354486812232047,-0.00428242351974628,-0.000233135461355616
"15:52525282:C:G",-0.00187303145534479,-0.00297913755314561,0.000200177553567826,-0.0122508797618046,-6.44889161778295e-05,3.93905481654855e-06,-0.000767895857212153,-0.00396984046111815,0,-0.000743886042751107,-0.000596007667459375,-0.000704916151303525,-0.00571308599371356,-0.0103874390715157,3.93905481654855e-06,-0.00359350405569181,8.73961958438585e-05,-0.00322795977417289,0,-0.000392632978367224,2.35187117834101e-05,-0.0049420667965423,0.123838184886175,-0.00374724420597428,-0.000261810339255319,-6.44889161778295e-05,-0.00546044048036176,-0.00431293408105926,-0.00658790248507168,-0.00124257335515132,-0.000128430443251837,3.93905481654855e-06,-0.00276964697676618,-0.00238148107731018,-6.44889161778295e-05,-0.00409418190924171,-0.00396984046111815,-0.00131130922823264,6.58920031675336e-05,-0.00759680986122291,-4.47078365564124e-05,-0.00708609518267478,-0.00671817133981101,-0.00318172801899763,-0.00546044048036176,-0.000703786724339572,6.31230991183784e-05,-0.00489482475867131
"15:52525375:C:T",-0.00765434657457842,-0.00870877808806636,-0.00126091166924258,8.34232213291486e-05,2.99480777465888e-05,-3.11125644625321e-06,-0.00604569773282648,0.000107079815006905,0,-0.000696698003632257,-0.00131863707111268,-0.00139813938320099,-0.00579079517622194,-0.00564679591332862,-3.11125644625321e-06,-0.000106522209687654,-0.000612680410851496,-0.000164046902590975,0,-0.00295253401455042,-0.000145020541157059,-0.0106377103738389,-0.00374724420597428,0.125682504372345,-0.00122886223852525,2.99480777465888e-05,-0.00276118386065427,-0.000515476983180996,-0.0106069622831826,-0.00456968269239866,5.57093902919803e-05,-0.00377298175416652,-0.0068004988855126,-0.0020482151240504,2.99480777465888e-05,-0.00157444226942083,0.000107079815006905,-0.00486830919558656,-3.52268451750959e-05,-0.00514153665155703,-0.00389593766062379,-0.00653380067750842,-0.00907883367795748,-1.32209767524927e-05,-0.00276118386065427,-0.00138293772703069,-0.00161689262613418,-2.66740733936288e-05
"15:52529031:T:C",-9.34578031506206e-05,-0.000802460253151338,-0.000124965813213862,0.000222689327701531,3.44421869211686e-05,-3.51791426389525e-06,-1.9169067329905e-05,0.000134731971650481,0,-0.000120599481260086,-0.00607986565652219,-0.00111996312161988,-0.000803284090909351,4.52720301815646e-05,-3.51791426389525e-06,4.96778290628441e-05,-5.75846067141228e-05,-0.000253759616904325,0,5.94281785497586e-05,4.29712896377055e-05,-0.00492505047337755,-0.000261810339255319,-0.00122886223852525,0.0237992847533706,3.44421869211686e-05,-0.000102005825584506,0.000129287933932076,-0.00289409140543651,-0.000186780703407052,6.5730862318425e-05,-3.51791426389525e-06,6.71191143375438e-06,-1.43331826381043e-05,3.44421869211686e-05,-0.00136828873796713,0.000134731971650481,-0.000173918336888512,-3.82299555399257e-05,-0.00294391778206116,-0.000425593663599066,-8.2036084100956e-05,6.71191143553074e-06,6.60705009378759e-05,-0.000102005825584506,-2.93946847609305e-05,-0.000825075469625958,0.000220430929293691
"15:52530586:C:A",1.8410388753054e-05,4.82669361190347e-06,2.48945964180791e-05,0.00044187861593592,0.00182032951166811,6.07392329321499e-07,5.7475428540954e-06,-2.86841319576681e-05,0,2.41471140718374e-05,-7.99074797299681e-05,9.13439872309851e-05,2.95598960855514e-05,-1.19467893080483e-05,-0.00204121466972396,-1.11647665104186e-05,1.1109647894969e-05,4.87703463010192e-05,0,-1.28347736954026e-05,-1.00193110492697e-05,-8.5553898205859e-05,-6.44889161778295e-05,2.99480777465888e-05,3.44421869211686e-05,-0.0023162178964462,1.98720172566169e-05,0.000761790498031267,0.000814269632988918,8.63489533386996e-06,-1.39172413762267e-05,-0.00204121466972396,-3.87122458889166e-06,2.47033254652251e-06,0.00182032951166811,-3.7081721210086e-05,-2.86841319576681e-05,5.43506130288307e-05,7.78077916763209e-06,-2.88288036927042e-05,4.83352495628253e-06,0.000312799033566513,-3.87122458889166e-06,-1.54520496327137e-05,1.98720172566169e-05,5.05372057624243e-06,1.98720172566169e-05,0.000397009108119128
"15:52532599:C:G",-5.38793422775186e-05,-0.00320766287367391,-7.2660648076095e-05,0.000126716280406391,1.98720172566169e-05,-1.9166755125255e-06,-0.000187291464028405,7.69936107740676e-05,0,-7.02004431722969e-05,-0.00217858286528205,4.72141910483614e-05,-0.000223547413850333,-0.00252888934821094,-1.9166755125255e-06,2.93550705494638e-05,-3.27874291849994e-05,-0.001155908079296,0,3.4557445749428e-05,2.57707955721997e-05,-0.00428242351974628,-0.00546044048036176,-0.00276118386065427,-0.000102005825584506,1.98720172566169e-05,0.0403280966467108,7.41713626606355e-05,-0.000179537846602962,-0.00916392364594376,3.79148146407715e-05,-1.9166755125255e-06,-0.000493076382044322,-7.81741223221388e-06,1.98720172566169e-05,-2.27851855028049e-05,7.69936107740676e-05,-0.00602649043188563,0.000415172168023226,-6.34260822032218e-05,-1.83709565053647e-05,-0.000704186997159795,-0.000371950431239831,3.95195191149611e-05,0.000693302463029788,-0.00275755739601369,-5.8658276426371e-05,0.000125600632872924
"15:52533066:G:A",6.90801377043471e-05,-0.000252482687468358,9.39211698316456e-05,0.00168968721841356,0.000761790498031267,2.10994640070794e-06,-0.00229348347706981,0.000139499103683605,0,9.13134695403883e-05,-0.000827616409193155,-0.00351658218861584,-0.00165386834752113,-5.08776364389618e-05,-0.00307788855443913,-4.45824735271216e-05,4.12331363488505e-05,0.00018109940051847,0,-0.000681119571387612,-4.06448440610774e-05,-0.00089598681835934,-0.00431293408105926,-0.000515476983180996,0.000129287933932076,0.000761790498031267,7.41713626606355e-05,0.0300091717234015,-0.00455698196953236,7.81968327956406e-06,-5.40495657368467e-05,-0.00307788855443913,-1.95318969407055e-05,8.57867336545581e-06,0.000761790498031267,-0.000149190285425149,0.000139499103683605,0.000183056665727932,2.9645908089293e-05,-0.000116638632625232,-0.00260802295541041,-0.00665282284038327,-1.95318969398173e-05,-6.2827191554149e-05,7.41713626606355e-05,1.75422200081599e-05,-0.00166792057984377,0.00188269072780844
"15:52534344:G:A",-0.00548108985241313,-0.0117690411739795,-0.00447385093831443,-0.000521042427575225,0.000814269632988918,-3.55928825523932e-06,-0.0165318599336177,0.000304805871823355,0,-0.00740912458149268,-0.0029374448110886,-0.00705393721443004,-0.00158321916820636,-0.00941767081815215,-0.00310243273986366,-0.00167531958216571,-0.00439597176784812,-0.00460443036599756,0,-0.000586442131633724,-0.00204180269009058,-0.00869158965120942,-0.00658790248507168,-0.0106069622831826,-0.00289409140543651,0.000814269632988918,-0.000179537846602962,-0.00455698196953236,0.158060520477573,-0.00230207989574893,-0.000101264875083551,-0.00310243273986366,-0.00255428917761957,-0.00139284182226795,0.000814269632988918,-0.00109427557170072,0.000304805871823355,-0.00190346846837386,-4.73774122937698e-05,-0.00195111470944909,-0.00918249190744103,-0.00190641267976055,-0.00401214322657584,-0.00345404869464883,-0.000179537846602962,-0.00937580110596326,-0.00316241875081325,0.0017143628901799
"15:52541842:T:G",-8.18919243084082e-05,-0.00745495558001208,-0.00283238146553977,-7.67039159423888e-05,8.63489533386996e-06,-0.00381332160252335,-2.97187244040487e-05,-0.001352990691875,0,-0.00300780861242522,-0.000137766506951742,-0.000456102935736613,-0.000158260025816759,-0.00217274904963549,-1.02735895080031e-06,-0.000677771851226971,-0.000623931827894886,-0.00198716420151879,0,-0.00329333950448163,-0.000229236731398075,-0.00633420954339226,-0.00124257335515132,-0.00456968269239866,-0.000186780703407052,8.63489533386996e-06,-0.00916392364594376,7.81968327956406e-06,-0.00230207989574893,0.0889769627404524,-0.00622966644488265,-1.02735895080031e-06,-0.000780604278841857,-0.00221761735611725,8.63489533386996e-06,-0.000269131995469074,-0.001352990691875,-0.00865094952304091,-1.47179966836219e-05,-0.000348826719470452,-0.000694040536830087,-0.00398078749847386,-0.0028855562274428,-0.000173239148413273,-0.00916392364594376,2.74387725562875e-05,8.99671704601701e-06,-9.76708302165008e-05
"15:52541903:T:C",-0.00158231100310591,-0.000765428309314586,4.76377457339083e-05,-9.56909302942677e-05,-1.39172413762267e-05,-0.00239913397667202,-0.000950097760727964,-5.57748777403333e-05,0,4.6246318899712e-05,-0.000703868551380715,-0.000107283340724074,5.63136652900198e-05,-0.000952297879857511,1.1353983699891e-06,-2.18521670278804e-05,2.11784200834231e-05,9.26004417118875e-05,0,-2.49730039518781e-05,-1.97125047955993e-05,-0.000170109089634884,-0.000128430443251837,5.57093902919803e-05,6.5730862318425e-05,-1.39172413762267e-05,3.79148146407715e-05,-5.40495657368467e-05,-0.000101264875083551,-0.00622966644488265,0.0213032446300092,1.1353983699891e-06,-8.24093243867452e-06,4.61638645976592e-06,-1.39172413762267e-05,-7.29482034289575e-05,-5.57748777403333e-05,-0.00602589255276786,1.49647211040715e-05,-5.67730417904144e-05,-0.000373921505542718,-0.000702751188204509,-8.24093243689816e-06,-3.04408193834149e-05,3.79148146407715e-05,9.44004542713373e-06,3.79148146407715e-05,-9.50173659468589e-05
"15:52542004:A:G",-1.76080958969038e-06,-0.00412768923911422,-2.44070924981798e-06,-0.00337581310977875,-0.00204121466972396,-5.51981402807655e-08,-0.00394010729428995,2.17290302906292e-06,0,-2.35771771972537e-06,4.45093053169643e-06,-1.36240474821747e-05,-0.00336429265585814,9.49925309079447e-07,-0.00591124593311232,9.13509867750406e-07,-1.03411766527728e-06,-5.29395238579866e-06,0,-0.00490520235064817,8.19219116543479e-07,4.57007755461092e-06,3.93905481654855e-06,-0.00377298175416652,-3.51791426389525e-06,-0.00204121466972396,-1.9166755125255e-06,-0.00307788855443913,-0.00310243273986366,-1.02735895080031e-06,1.1353983699891e-06,0.0529021913682994,2.93452782962333e-07,-2.26514956125357e-07,-0.00204121466972396,-0.00423862940664499,2.17290302906292e-06,-6.30656995692647e-06,-7.06302828668015e-07,2.15579986218017e-06,-4.7587253515502e-07,-8.88346294622977e-05,2.93452782074155e-07,1.23093845072475e-06,-1.9166755125255e-06,-4.69131523850308e-07,-0.00343428077527985,-0.00342111691369862
"15:52542597:G:A",6.06532535396553e-06,-0.000554680899424564,6.84769474368352e-06,-4.26448686967618e-05,-3.87122458889166e-06,2.93452782962333e-07,-0.00247841049396946,-0.00785254539124125,0,6.79146801907393e-06,-8.95121417245903e-05,-0.0111217937495489,-0.00385331055306715,-0.00103277807759028,2.93452782962333e-07,-0.00148561833030936,4.34365346091425e-06,-0.00120243061314973,0,-0.00336746886254335,-7.75424867498486e-05,-0.00452160861211937,-0.00276964697676618,-0.0068004988855126,6.71191143375438e-06,-3.87122458889166e-06,-0.000493076382044322,-1.95318969407055e-05,-0.00255428917761957,-0.000780604278841857,-8.24093243867452e-06,2.93452782962333e-07,0.0760470060734924,1.15568375491648e-06,-3.87122458889166e-06,-0.00272787939212105,-0.00785254539124125,-0.000626443568362944,3.24070699342371e-06,-0.0028953946290855,-0.0022283707506876,-0.00374455590987299,0.000619559183991036,-0.000815468057873581,-0.000493076382044322,-0.00228301531872521,-0.00187581243193602,-4.21929435763246e-05
"15:52543615:G:T",-7.1772539369519e-06,-0.000118143725403641,-9.94031986234489e-06,1.34406046372604e-05,2.47033254652251e-06,-2.26514956125357e-07,-0.00222507690292417,8.83715734456558e-06,0,-9.59961935098619e-06,-0.000753267995029283,-0.00523053067993384,-0.00163957074331833,-0.00212680833326129,-2.26514956125357e-07,3.70528725834873e-06,-4.22045053483089e-06,-2.15969629149271e-05,0,4.26139990938879e-06,3.31791029406503e-06,-0.00275619585806819,-0.00238148107731018,-0.0020482151240504,-1.43331826381043e-05,2.47033254652251e-06,-7.81741223221388e-06,8.57867336545581e-06,-0.00139284182226795,-0.00221761735611725,4.61638645976592e-06,-2.26514956125357e-07,1.15568375491648e-06,0.0347259329518774,2.47033254652251e-06,-0.00249787880532448,8.83715734456558e-06,-0.00234973720068155,-2.87469436344168e-06,8.74739235978694e-06,-0.00473984831480667,-0.00224533192834464,1.15568375669284e-06,4.98716398400489e-06,-7.81741223221388e-06,-1.92619806149708e-06,-7.81741223221388e-06,1.33618800841617e-05
"15:52543923:G:A",1.8410388753054e-05,4.82669361190347e-06,2.48945964180791e-05,0.00044187861593592,0.00182032951166811,6.07392329321499e-07,5.7475428540954e-06,-2.86841319576681e-05,0,2.41471140718374e-05,-7.99074797299681e-05,9.13439872309851e-05,2.95598960855514e-05,-1.19467893080483e-05,-0.00204121466972396,-1.11647665104186e-05,1.1109647894969e-05,4.87703463010192e-05,0,-1.28347736954026e-05,-1.00193110492697e-05,-8.5553898205859e-05,-6.44889161778295e-05,2.99480777465888e-05,3.44421869211686e-05,0.00182032951166811,1.98720172566169e-05,0.000761790498031267,0.000814269632988918,8.63489533386996e-06,-1.39172413762267e-05,-0.00204121466972396,-3.87122458889166e-06,2.47033254652251e-06,-0.0023162178964462,-3.7081721210086e-05,-2.86841319576681e-05,5.43506130288307e-05,7.78077916763209e-06,-2.88288036927042e-05,4.83352495628253e-06,0.000312799033566513,-3.87122458889166e-06,-1.54520496327137e-05,1.98720172566169e-05,5.05372057624243e-06,1.98720172566169e-05,0.000397009108119128
"15:52544124:A:C",8.8813725610315e-05,-0.00681009034704694,-0.000441105396697949,-0.000272967504520771,-3.7081721210086e-05,2.66237892176946e-06,-0.00641114203627691,-0.000153224435414323,0,0.000116946202057377,-0.00367020629403481,-0.0101163020018085,-0.00415990348201145,-0.00182504803183825,2.66237892176946e-06,-0.000180795195581673,-0.000422431771750276,0.000224355883995386,0,-0.00354170396787357,-0.00316745726913492,-0.000953791113990299,-0.00409418190924171,-0.00157444226942083,-0.00136828873796713,-3.7081721210086e-05,-2.27851855028049e-05,-0.000149190285425149,-0.00109427557170072,-0.000269131995469074,-7.29482034289575e-05,-0.00423862940664499,-0.00272787939212105,-0.00249787880532448,-3.7081721210086e-05,0.0803081321232475,-0.000153224435414323,-2.10142607661723e-05,3.87653827225165e-05,-0.000291761903107535,-0.00233277182443459,-0.00969463994952546,-0.00263105654340201,-0.00308515859970626,-2.27851855028049e-05,-2.97850005583911e-05,-0.00190158805647744,-0.000271506542723898
"15:52549762:G:A",7.17087378783177e-05,-2.43059499167586e-05,9.768206449845e-05,-0.000244112493098747,-2.86841319576681e-05,2.17290302906292e-06,-0.000955941702960317,0.00365869070431835,0,9.49678158743694e-05,-0.000325593234435928,0.000234818104566159,0.000114619470889643,-5.26879092577204e-05,2.17290302906292e-06,-4.60818998355705e-05,4.27030249054994e-05,0.000189227951322479,0,-0.00355339467748106,-4.20481641061343e-05,-0.000630961094865157,-0.00396984046111815,0.000107079815006905,0.000134731971650481,-2.86841319576681e-05,7.69936107740676e-05,0.000139499103683605,0.000304805871823355,-0.001352990691875,-5.57748777403333e-05,2.17290302906292e-06,-0.00785254539124125,8.83715734456558e-06,-2.86841319576681e-05,-0.000153224435414323,0.0331543095986744,-0.00139457922472186,3.0724407713123e-05,-0.00035685538045982,-0.00109387468630384,-0.000835172386820737,-0.00775572254252133,-0.000446637747654854,7.69936107740676e-05,1.80779406981912e-05,-0.0070465597763425,-0.00028803254743881
"15:52559874:C:T",-0.000201157807240726,-0.00570999542463069,-0.00276466839560463,0.000122508226859885,5.43506130288307e-05,-0.00370282321448112,-6.48691055094019e-05,-0.00139457922472186,0,-0.00281721334232721,0.000179178441426231,-0.000366797123179108,-0.000359284133399029,-0.00135729173965515,-6.30656995692647e-06,-0.000829688051707578,-0.000578343103184054,-0.00240819439659745,0,-0.00343857885636023,-0.000149540561057648,-0.00623522755955408,-0.00131130922823264,-0.00486830919558656,-0.000173918336888512,5.43506130288307e-05,-0.00602649043188563,0.000183056665727932,-0.00190346846837386,-0.00865094952304091,-0.00602589255276786,-6.30656995692647e-06,-0.000626443568362944,-0.00234973720068155,5.43506130288307e-05,-2.10142607661723e-05,-0.00139457922472186,0.0768600760390425,-6.54805885504928e-05,-0.000155892136194602,-0.000470237912901794,-0.00231266327665614,-0.00248458674190211,-0.000393058528518786,-0.00602649043188563,4.07555581007912e-05,4.48623463089604e-06,9.82737821670909e-05
"15:52565388:T:C",-2.03947845598407e-05,-1.35852415104054e-05,-2.74904783204022e-05,5.16332348459159e-05,7.78077916763209e-06,-7.06302828668015e-07,-9.97076951492204e-06,3.0724407713123e-05,0,-2.66150414232058e-05,8.33520602796511e-05,5.45913146643429e-05,-3.29659457634079e-05,-6.93593947316273e-05,-7.06302828668015e-07,1.17616158847866e-05,-1.23904191742241e-05,0.000559686996175479,0,1.37058518845379e-05,1.0426605403957e-05,8.78848940377708e-05,6.58920031675336e-05,-3.52268451750959e-05,-3.82299555399257e-05,7.78077916763209e-06,0.000415172168023226,2.9645908089293e-05,-4.73774122937698e-05,-1.47179966836219e-05,1.49647211040715e-05,-7.06302828668015e-07,3.24070699342371e-06,-2.87469436344168e-06,7.78077916763209e-06,3.87653827225165e-05,3.0724407713123e-05,-6.54805885504928e-05,-0.00165938134976695,3.00333454736901e-05,-6.26065557174371e-06,7.12246251195481e-05,3.24070699431189e-06,1.6048300310878e-05,0.000415172168023226,-5.88686617675194e-06,-2.2105353263413e-05,5.11989387419476e-05
"15:52566703:T:C",-0.00213239816822597,-0.0015696101257765,-0.00331264024057987,-0.000214738031817596,-2.88288036927042e-05,2.15579986306835e-06,-0.00478418171774031,-0.00035685538045982,0,8.99946366050841e-05,-0.000926734269308227,-0.000566150127458087,-0.00214986494675262,-0.00125925117244119,2.15579986306835e-06,-4.67627454732167e-05,-0.00176483439229269,-0.00217072626701587,0,-0.0011731247504212,-0.00286515876078308,-0.00143133452736777,-0.00759680986122291,-0.00514153665155703,-0.00294391778206116,-2.88288036927042e-05,-6.34260822032218e-05,-0.000116638632625232,-0.00195111470944909,-0.000348826719470452,-5.67730417904144e-05,2.15579986218017e-06,-0.0028953946290855,8.74739235978694e-06,-2.88288036927042e-05,-0.000291761903107535,-0.00035685538045982,-0.000155892136194602,3.00333454736901e-05,0.0595162318955653,-0.00349181403236898,-0.000735964278851142,-0.00305237699186023,-0.00158200242180051,-6.34260822032218e-05,-0.00171923003457497,-6.34260822032218e-05,-0.000213435181510846
"15:52567523:T:C",-0.0026780926769483,-0.00496090426581652,-2.38843255004895e-05,-0.00313665717828471,4.83352495628253e-06,4.89448392926306e-06,-0.0154362998388233,-0.00109387468630384,0,-0.000614798523286275,-0.00148004173763638,-0.0013315625338608,-0.00148921210910924,-0.000505504871940232,-4.75872534266841e-07,-0.00178069601350384,-9.43998013180902e-06,-0.00140846408208173,0,-0.00838105197601902,-0.00228519724612841,-6.84966996731262e-05,-4.47078365564124e-05,-0.00389593766062379,-0.000425593663599066,4.83352495628253e-06,-1.83709565053647e-05,-0.00260802295541041,-0.00918249190744103,-0.000694040536830087,-0.000373921505542718,-4.7587253515502e-07,-0.0022283707506876,-0.00473984831480667,4.83352495628253e-06,-0.00233277182443459,-0.00109387468630384,-0.000470237912901794,-6.26065557174371e-06,-0.00349181403236898,0.0973516038131814,-0.00579367189300939,-0.00213154790196945,-2.43864310220943e-05,-1.83709565053647e-05,-0.00219510497262032,-0.00569440949751687,-0.00322211152963447
"15:52567631:G:A",-0.00156449389585678,-0.00430318127448626,-0.00357797191578069,-0.00322558683449614,0.000312799033566513,4.28302188026919e-06,-0.0213116890436935,-0.000835172386820737,0,-0.0029304819795426,-0.00441656034457827,-0.000958068413801083,-0.00208698739911473,-0.0071201946111783,-0.00348530130187186,-0.000281565510404036,-0.00419243385234846,-0.00619572858713724,0,-0.00111534016235115,-0.0104069367653201,-0.00268432109612737,-0.00708609518267478,-0.00653380067750842,-8.2036084100956e-05,0.000312799033566513,-0.000704186997159795,-0.00665282284038327,-0.00190641267976055,-0.00398078749847386,-0.000702751188204509,-8.88346294622977e-05,-0.00374455590987299,-0.00224533192834464,0.000312799033566513,-0.00969463994952546,-0.000835172386820737,-0.00231266327665614,7.12246251195481e-05,-0.000735964278851142,-0.00579367189300939,0.148671886366049,-0.00509073878854549,-0.00250546014926822,-0.000704186997158907,-0.00688839770765348,-0.000817385394908499,0.000112120699504281
"15:52567851:G:A",6.06532535485371e-06,1.59318563688338e-05,6.84769474368352e-06,-4.26448686967618e-05,-3.87122458889166e-06,2.93452782962333e-07,-0.00224257210708334,-0.00775572254252133,0,-0.000838288332801085,-8.95121417245903e-05,-0.0137578570222274,-0.0036502458651464,-0.000911652126784013,2.93452782962333e-07,-0.00156300370948959,4.34365346091425e-06,-0.00126714348514145,0,-0.00327064601382521,-0.00122672016436542,-0.00548722414852509,-0.00671817133981101,-0.00907883367795748,6.71191143553074e-06,-3.87122458889166e-06,-0.000371950431239831,-1.95318969398173e-05,-0.00401214322657584,-0.0028855562274428,-8.24093243689816e-06,2.93452782074155e-07,0.000619559183991036,1.15568375669284e-06,-3.87122458889166e-06,-0.00263105654340201,-0.00775572254252133,-0.00248458674190211,3.24070699431189e-06,-0.00305237699186023,-0.00213154790196945,-0.00509073878854549,0.0921953748753825,-0.00012548237709531,-0.000371950431239831,-0.00218619247000618,-0.00177898958321698,-4.21929435754365e-05
"15:52577658:G:A",3.68056127992844e-05,-0.000135192390838146,4.90368003260855e-05,-0.000116308487037031,-1.54520496327137e-05,1.23093845072475e-06,-0.00110266655156721,-0.000446637747654854,0,4.7688201081364e-05,-0.00331469429026576,-0.00338317065021965,5.73364433744672e-05,-0.00168687832709669,1.23093845072475e-06,-0.000126351050681706,2.25261997393034e-05,-0.00164509531254087,0,-0.0012926952094352,-0.00156549240468618,-0.00309208173273401,-0.00318172801899763,-1.32209767524927e-05,6.60705009378759e-05,-1.54520496327137e-05,3.95195191149611e-05,-6.2827191554149e-05,-0.00345404869464883,-0.000173239148413273,-3.04408193834149e-05,1.23093845072475e-06,-0.000815468057873581,4.98716398400489e-06,-1.54520496327137e-05,-0.00308515859970626,-0.000446637747654854,-0.000393058528518786,1.6048300310878e-05,-0.00158200242180051,-2.43864310220943e-05,-0.00250546014926822,-0.00012548237709531,0.0336284855823394,3.95195191149611e-05,1.01478134562072e-05,-5.96313319070063e-05,-0.000115453673679156
"15:52578034:C:T",-5.38793422775186e-05,-0.00320766287367391,-7.2660648076095e-05,0.000126716280406391,1.98720172566169e-05,-1.9166755125255e-06,-0.000187291464028405,7.69936107740676e-05,0,-7.02004431722969e-05,-0.00217858286528205,4.72141910483614e-05,-0.000223547413850333,-0.00252888934821094,-1.9166755125255e-06,2.93550705494638e-05,-3.27874291849994e-05,-0.001155908079296,0,3.4557445749428e-05,2.57707955721997e-05,-0.00428242351974628,-0.00546044048036176,-0.00276118386065427,-0.000102005825584506,1.98720172566169e-05,0.000693302463029788,7.41713626606355e-05,-0.000179537846602962,-0.00916392364594376,3.79148146407715e-05,-1.9166755125255e-06,-0.000493076382044322,-7.81741223221388e-06,1.98720172566169e-05,-2.27851855028049e-05,7.69936107740676e-05,-0.00602649043188563,0.000415172168023226,-6.34260822032218e-05,-1.83709565053647e-05,-0.000704186997158907,-0.000371950431239831,3.95195191149611e-05,0.0403280966467099,-0.00275755739601369,-5.8658276426371e-05,0.000125600632872924
"15:52582593:A:T",-1.47280461035848e-05,-0.00576491955747294,-2.03744681694928e-05,-0.00151679208591915,5.05372057624243e-06,-4.69131523850308e-07,-0.000624493925641012,1.80779406981912e-05,0,-1.96684701361249e-05,-0.0053586101815668,1.1922422766375e-05,-9.5046511250807e-05,-0.00201897944868623,-4.69131523850308e-07,-0.00183593262906978,-8.67552465688703e-06,-0.000138390312974579,0,8.7044661425395e-06,6.74794877841833e-06,-0.000354486812232047,-0.000703786724339572,-0.00138293772703069,-2.93946847609305e-05,5.05372057624243e-06,-0.00275755739601369,1.75422200081599e-05,-0.00937580110596326,2.74387725562875e-05,9.44004542713373e-06,-4.69131523850308e-07,-0.00228301531872521,-1.92619806149708e-06,5.05372057624243e-06,-2.97850005583911e-05,1.80779406981912e-05,4.07555581007912e-05,-5.88686617675194e-06,-0.00171923003457497,-0.00219510497262032,-0.00688839770765348,-0.00218619247000618,1.01478134562072e-05,-0.00275755739601369,0.0514833949767199,-1.60554218808784e-05,-0.00156227687425048
"15:52583725:A:G",-5.38793422775186e-05,-0.00799215443745727,-7.2660648076095e-05,-0.00191464488053406,1.98720172566169e-05,-1.9166755125255e-06,-0.0100414002412279,-0.0070465597763425,0,-7.02004431722969e-05,-0.00217858286528205,-0.0103347299463934,-0.00120295608525733,2.84903217604437e-05,-1.9166755125255e-06,-0.00231031673090953,-3.27874291849994e-05,-0.000148444189790986,0,-0.00854397992654921,2.57707955721997e-05,-0.00428242351974628,6.31230991183784e-05,-0.00161689262613418,-0.000825075469625958,1.98720172566169e-05,-5.8658276426371e-05,-0.00166792057984377,-0.00316241875081325,8.99671704601701e-06,3.79148146407715e-05,-0.00343428077527985,-0.00187581243193602,-7.81741223221388e-06,1.98720172566169e-05,-0.00190158805647744,-0.0070465597763425,4.48623463089604e-06,-2.2105353263413e-05,-6.34260822032218e-05,-0.00569440949751687,-0.000817385394908499,-0.00177898958321698,-5.96313319070063e-05,-5.8658276426371e-05,-1.60554218808784e-05,0.0880700189111971,-0.00196117803607443
"15:52587740:G:T",0.00011758867621392,-0.000762490793763337,0.000160818073842606,0.000192747534433657,0.000397009108119128,3.28633474211415e-06,7.72680454730335e-06,-0.00028803254743881,0,-0.00123907100067733,-0.00142289431862075,-0.00130758829825783,-0.00080244602083912,-0.00296006327224863,-0.00342111691369862,-8.05346448702338e-05,6.93548481969231e-05,0.000305859987633106,0,-0.00106337506567122,-7.45096759091624e-05,-0.000233135461355616,-0.00489482475867131,-2.66740733936288e-05,0.000220430929293691,0.000397009108119128,0.000125600632872924,0.00188269072780844,0.0017143628901799,-9.76708302165008e-05,-9.50173659468589e-05,-0.00342111691369862,-4.21929435763246e-05,1.33618800841617e-05,0.000397009108119128,-0.000271506542723898,-0.00028803254743881,9.82737821670909e-05,5.11989387419476e-05,-0.000213435181510846,-0.00322211152963447,0.000112120699504281,-4.21929435754365e-05,-0.000115453673679156,0.000125600632872924,-0.00156227687425048,-0.00196117803607443,0.0235168915302491
