"","6:76458777:T:C","6:76458886:T:C","6:76459139:C:G","6:76462711:C:T","6:76462937:G:A","6:76468262:C:T","6:76477956:T:G","6:76480775:A:G","6:76486224:A:G","6:76486383:G:A","6:76487487:C:T","6:76487551:G:A","6:76488525:G:T","6:76491943:A:G","6:76495807:T:G","6:76499172:G:A","6:76506691:A:T","6:76512484:A:G","6:76515029:A:G","6:76516217:C:T","6:76516969:C:G","6:76517896:G:A","6:76520736:G:T","6:76522921:C:T","6:76524318:C:T","6:76524873:G:A","6:76536333:A:C","6:76536947:T:C","6:76552062:A:C","6:76554593:G:A","6:76558799:G:A","6:76560624:A:T","6:76560707:T:C","6:76563890:C:T","6:76564897:T:C","6:76573647:T:C","6:76574145:T:C","6:76581045:C:G","6:76582542:G:C","6:76585211:G:T","6:76595634:C:A","6:76598541:C:T","6:76599409:T:C","6:76600125:G:A","6:76603155:A:G","6:76606200:T:C","6:76607280:A:G","6:76610319:C:A","6:76610595:A:G","6:76612173:G:C","6:76613819:T:G","6:76614878:G:A","6:76614904:A:G","6:76619987:T:C","6:76620527:A:G","6:76624538:G:A","6:76625188:A:G","6:76626432:C:T","6:76627639:T:A","6:76628017:T:C","6:76628025:G:T","6:76628176:A:C","6:76628564:C:T","6:76629012:A:G","6:76629776:A:G"
"6:76458777:T:C",0.0891888808918297,-6.50298677928873e-06,-0.00321547022897128,-0.00725616035096532,-0.00181253805034398,-6.01350009254986e-06,-5.0741806107979e-06,-9.18239376082042e-05,-0.000265395172981187,-0.00206091909841355,-0.00425930750637704,-6.97456917109207e-07,1.12753891379214e-06,-0.000987915802078021,-0.00115080992377692,3.43693911997178e-06,-0.00271586737131013,-0.00544183639643947,-6.01350009254986e-06,-0.000464017402325823,8.44999748395026e-06,-0.0019192605364573,3.43693911997178e-06,-1.19579935624614e-05,4.93325453465587e-06,6.83682906199579e-06,-0.00353432843622503,8.96981571063549e-06,-6.01350009254986e-06,-0.00213458153822277,-0.00191552647932536,-0.00162102162197186,-0.00163935429449769,-0.00376591430856976,-6.97456917109207e-07,-0.00213458153822277,-0.00346181653978483,-0.00394567887343555,9.44086433296576e-06,-0.000421351839475115,-0.000587647470069008,4.93325453465587e-06,-0.00353432843622503,9.27721383892077e-06,-0.00394567887343555,-0.00149927184781529,-0.00163935429449769,-0.000135358817008324,-3.48664922098507e-05,-0.00376591430856976,-0.000131835453777818,-1.03816144338964e-05,-0.00353432843622503,-0.00111219315538769,-1.19579935624614e-05,-0.00112994383946141,-0.000464017402325823,-0.00255289551970783,-6.97456917109207e-07,-0.00248870388484512,-0.00162981948660423,-1.8175585076996e-05,-0.000621542213136372,-0.00331216678500379,-0.000830196349341783
"6:76458886:T:C",-6.50298677928873e-06,0.0947583170720661,-5.50329833375329e-05,-0.000100153501211508,-0.00199215676219477,-1.48014111820416e-05,-0.00601731723465271,2.54354864903661e-05,-0.00269313122062087,-5.9921786270678e-06,-0.00271980280404982,-1.94521041141371e-06,2.94614158580231e-06,5.89338638787851e-05,-0.000590784299286717,1.04289585758366e-05,4.22003510465174e-05,-0.00315351845700995,-1.48014111820416e-05,-0.000135931363538511,-0.00216416005850473,-0.0053501072984945,1.04289585758366e-05,-0.00115240143735118,1.56391736005901e-05,7.33023078725026e-05,-0.00626376561252684,-0.00852066691831155,-0.0014537291760135,-0.00185028617290417,-0.00250847975457091,-0.00219398232854129,-0.00187900260158358,3.88649278972863e-05,-1.94521041141371e-06,-0.00185028617290417,-0.00632438473164143,-0.00290241145079762,-6.50298677928873e-06,8.6029867394366e-05,-0.00349187991104838,1.56391736005901e-05,-0.00626376561252684,4.29191559518927e-05,-0.00290241145079762,-0.00206256314318765,-0.00187900260158358,-0.00151941610642492,-6.395538435644e-05,3.88649278972863e-05,4.22003510465174e-05,3.92553746397795e-06,-0.00626376561252684,5.77895125122296e-05,-0.00115240143735118,3.95638309891311e-05,-0.000135931363538511,-0.000137646397591062,-1.94521041141371e-06,6.78625804262367e-06,-0.000136481117523957,-0.00207530364203734,-0.00186212327262503,-0.0012589156632874,-0.00223872419424964
"6:76459139:C:G",-0.00321547022897128,-5.50329833375329e-05,0.0427014979866662,0.000760870856569618,3.6825493247683e-05,-5.09988544594719e-05,-4.30805378694998e-05,-0.00173738392460887,-0.00457252748457737,-2.23858243453279e-05,-8.03490300755882e-05,-7.2771241379499e-06,6.88196762954618e-06,0.000203066901450555,-0.000131484510700552,3.5261682954868e-05,-0.00254331227104476,-0.000109252605720478,-5.09988544594719e-05,-0.00266615077725429,0.000111493073926106,1.53373148723546e-05,3.5261682954868e-05,-9.16247650355473e-05,5.07771333895235e-05,-0.0018405484283992,0.000296081741395504,-0.00218674382030137,-5.09988544594719e-05,-1.47367571683432e-05,-0.000274390566506355,0.000108388758461864,-7.66525648652205e-05,0.000132143254011119,-7.2771241379499e-06,-1.47367571683432e-05,0.000340077290158725,-0.000118413481443369,-0.00321547022897128,-0.00039947372148319,-0.00263265263846524,5.07771333895235e-05,0.000296081741395504,0.000142901704814236,-0.000118413481443369,0.00014865370456274,-7.66525648652205e-05,-0.00427262840496567,-0.00209098285296072,0.000132143254011119,-0.00254331227104476,-0.0031135208068358,0.000296081741395504,-0.00250314328693957,-9.16247650355473e-05,0.000134947542904662,-0.00266615077725429,-0.000449141953623666,-7.2771241379499e-06,2.14274506831202e-05,-0.000166499673745157,-0.000128309736631138,-0.00212822866758966,0.000483637435253037,2.46942409418693e-05
"6:76462711:C:T",-0.00725616035096532,-0.000100153501211508,0.000760870856569618,0.134784689338741,-0.00039500763038447,-0.00347093734017356,-7.66559623768259e-05,-0.00485641494632816,-0.00955728998191097,-0.00179872520827384,-0.00183529203928945,-1.39573570514528e-05,-0.00377544192551671,0.000331254585702823,0.000535499423147456,6.03847450433292e-05,-0.000164174110482307,-0.00020146520590103,-0.00347093734017356,-0.00557133137166499,-0.00168469844969898,-0.00380648487372159,6.03847450433292e-05,-0.000165827603885838,-0.00191785153922996,-0.000303427709843263,-0.00352526884564153,-0.00115375378266425,-9.21960218303042e-05,-2.83597253556422e-05,-0.0022368496229932,-0.00171995988289275,-0.00399755375011868,0.000219164396326299,-1.39573570514528e-05,-2.83597253556422e-05,-0.00340951862606786,-0.00174788524158132,-0.00725616035096532,-0.000466930610811822,-0.00517314226572907,-0.00191785153922996,-0.00352526884564242,0.000142074273588477,-0.00174788524158132,-0.00153198673652444,-0.00399755375011868,-0.00493626748214737,-0.000259418034563197,0.000219164396326299,-0.000164174110482307,-0.0022368496229932,-0.00352526884564242,-0.0112531776883484,-0.000165827603885838,0.000224193105933246,-0.00557133137166499,-0.00457002532963457,-1.39573570514528e-05,-0.00215576529596806,-0.000352664911791756,-0.000232731267726827,-0.00566462479204155,0.000130895383287477,-0.00237381516552748
"6:76462937:G:A",-0.00181253805034398,-0.00199215676219477,3.6825493247683e-05,-0.00039500763038447,0.084394200857822,1.12679391515158e-05,9.79080345597794e-06,-2.3296822377894e-05,-0.000115207717728438,-0.00228943822719518,-0.00192506671663129,-0.00232588037756809,-0.00244448511683615,-0.00461733389164731,-0.0021219006856863,-8.8471117924982e-06,-4.11757215221797e-05,-0.00234406014801003,1.12679391515158e-05,-0.000294823816791023,-0.00282459922769362,-0.00545020472602964,-8.8471117924982e-06,1.98342797421702e-05,-0.00277185850365669,-7.89149601558847e-05,-0.000531671099602615,-3.66165924425843e-05,1.12679391515158e-05,2.91647322114841e-06,-3.75907814476051e-06,-0.00277192597010067,-0.00275079341270246,-0.00404490320693895,-0.00232588037756809,2.91647322114841e-06,-0.000513590423943722,-0.0020887319259435,-0.00181253805034398,-0.00104980653013698,-0.00122817025338229,-0.00277185850365669,-0.000531671099602615,-0.00284741216893192,-0.0020887319259435,-0.00296093535982145,-0.00275079341270246,-0.00425009854436365,4.12729529131184e-05,-0.00404490320693895,-4.11757215221797e-05,-3.75907814476051e-06,-0.000531671099602615,-5.82126368700031e-05,1.98342797421702e-05,-3.72713576002326e-05,-0.000294823816791023,-0.00132030302692243,-0.00232588037756809,-5.97250475564692e-06,-0.00180924478731459,-0.00121173580231204,-0.000286246011670599,-0.00136520475042357,2.05400099275721e-05
"6:76468262:C:T",-6.01350009254986e-06,-1.48014111820416e-05,-5.09988544594719e-05,-0.00347093734017356,1.12679391515158e-05,0.0512393109161788,-1.17892195010683e-05,2.38644907080143e-05,-0.00375920541245556,-5.57424675395879e-06,-2.11929402711419e-05,-1.81071460403359e-06,2.77593303632528e-06,5.55646867175241e-05,-0.00247272084182359,9.75585167406479e-06,3.96997017375611e-05,-2.95775049687919e-05,0.000339759052751631,-0.00305864603670258,3.16664635091612e-05,-0.00192760824330573,9.75585167406479e-06,-2.50790646072474e-05,1.46565699239432e-05,6.93054537563853e-05,-0.000472873921888883,-0.00186872877512023,-1.37843575265251e-05,-3.66819194308476e-06,3.68850979270974e-06,3.0935675845889e-05,-0.00183423377321645,3.65225144252079e-05,-1.81071460403359e-06,-3.66819194308476e-06,-0.000459297948578907,-3.19182469841195e-05,-6.01350009254986e-06,8.15203697150935e-05,-0.00317487934856153,1.46565699239432e-05,-0.000472873921888883,4.03776969823966e-05,-3.19182469841195e-05,4.17068003466525e-05,-0.00183423377321645,-0.00212574634647655,-5.91806681322637e-05,3.65225144252079e-05,3.96997017375611e-05,-0.00270610321539078,-0.000472873921888883,-0.00528011949151797,-2.50790646072474e-05,3.71812569728291e-05,-0.00305864603670258,-0.000126386803005474,-1.81071460403359e-06,6.35576771124136e-06,-4.53032875062931e-05,-3.54461511440363e-05,-0.00731421143844369,-0.00231342726238548,-0.00358635764344228
"6:76477956:T:G",-5.0741806107979e-06,-0.00601731723465271,-4.30805378694998e-05,-7.66559623768259e-05,9.79080345597794e-06,-1.17892195010683e-05,0.0416101208857214,2.07684037762945e-05,-0.00513440181294555,-4.75981272707315e-06,-1.80468915900178e-05,-1.5485391680059e-06,2.43174917891054e-06,4.89372121492693e-05,-0.000396730545261015,8.43188385601934e-06,3.477223453352e-05,0.000370579390721382,-1.17892195010683e-05,-0.000102285787490608,2.76455564351963e-05,-0.00516921548157789,8.43188385601934e-06,-2.13733578782183e-05,1.27179012840983e-05,6.14398336953315e-05,-0.000193805654678414,-0.00451362824517521,-1.17892195010683e-05,-3.13468242207904e-06,-0.00163981761928778,2.70050066131233e-05,-1.2382096954866e-05,3.19134092405804e-05,-1.5485391680059e-06,-3.13468242207904e-06,-0.000172254355762291,-2.71064874182159e-05,-5.0741806107979e-06,7.26502983425803e-05,-0.000132499343061809,1.27179012840983e-05,-0.000193805654679302,-0.00192934892305985,-2.71064874182159e-05,3.65455298876327e-05,-1.2382096954866e-05,-0.0054077324143611,-4.9820765365638e-05,3.19134092405804e-05,3.477223453352e-05,3.21421246596287e-06,-0.000193805654679302,4.79646493136698e-05,-2.13733578782183e-05,3.24939056257634e-05,-0.000102285787490608,-0.000104303674349104,-1.5485391680059e-06,5.50463292636749e-06,-3.8308642103857e-05,-3.01106211608726e-05,-0.00557917494325455,-0.00496582146019975,-0.000165590216401057
"6:76480775:A:G",-9.18239376082042e-05,2.54354864903661e-05,-0.00173738392460887,-0.00485641494632816,-2.3296822377894e-05,2.38644907080143e-05,2.07684037762945e-05,0.042818965436489,-0.00129830700902112,8.87584697917276e-06,3.5196996008402e-05,2.89990731960899e-06,-6.8295130795093e-06,-0.000113406283193562,-0.00071218920350713,-1.81879893856873e-05,-8.13769403036346e-05,4.97417749878437e-05,2.38644907080143e-05,-0.0056587410074016,-6.37945632364634e-05,-9.43994219770872e-06,-1.81879893856873e-05,4.3038100094428e-05,-2.88838463280428e-05,-0.000450302917297307,0.000129030765062321,-7.216129527432e-05,2.38644907080143e-05,5.85795023777536e-06,-8.30074343571852e-06,-6.25462051058179e-05,-4.92706180841296e-05,-7.216129527432e-05,2.89990731960899e-06,5.85795023777536e-06,0.000124029012778859,5.31937428780438e-05,-9.18239376090924e-05,-0.00272135170455723,-0.00585255061492607,-2.88838463280428e-05,0.000129030765061877,-8.25490810045793e-05,5.31937428780438e-05,-8.48539230275946e-05,-4.92706180841296e-05,-0.00403063117555824,9.52863567524886e-05,-7.216129527432e-05,-8.13769403036346e-05,-8.30074343571852e-06,0.000129030765061877,-0.000111478187556635,4.3038100094428e-05,0.000193197600162343,-0.0056587410074016,-0.00258010716681945,2.89990731960899e-06,-1.26245267075831e-05,7.43367810702722e-05,-0.00380866532789259,-0.00096491786399211,-0.00257332495785079,0.000129221139579805
"6:76486224:A:G",-0.000265395172981187,-0.00269313122062087,-0.00457252748457737,-0.00955728998191097,-0.000115207717728438,-0.00375920541245556,-0.00513440181294555,-0.00129830700902112,0.140112801969353,-2.34224248352177e-06,-0.000480442879283061,-5.94227651706802e-06,-0.000514541843242178,-0.00361188429977677,-0.00396436056631533,-0.000100564782317569,-0.00229055084877494,6.52280099862068e-05,-0.00375920541245556,-0.0060349759626428,-0.000244193369857371,-0.000220815225933979,-0.000100564782317569,-0.000326183700636307,-0.00370262342694883,-0.000963038165930907,-0.00508168002709919,-0.000253732291673359,-0.000118929148923641,-0.0020237696446026,-0.00103755365540703,-0.00143265392947445,-0.000156007338052877,-0.00485020836714511,-5.94227651706802e-06,-0.0020237696446026,-0.00557281701512169,-0.000357144548070565,-0.000265395172981187,-0.000166019604789902,-0.0050107711113605,-0.00370262342694883,-0.00559417162969478,-0.000676440781348653,-0.000357144548070565,-0.00145833538641327,-0.000156007338052877,-0.00475415201428797,-0.00196284733299557,-0.00485020836714511,-0.00229055084877494,-0.00100664376332293,-0.00559417162969478,-0.00209240452480941,-0.000326183700636307,-0.000261375353391102,-0.0060349759626428,-0.000217080725133378,-5.94227651706802e-06,-0.000281768571006147,-0.00226587830021518,-0.000144545730484502,-0.00579376651236219,-0.0057922930347436,-0.00248442884715105
"6:76486383:G:A",-0.00206091909841355,-5.9921786270678e-06,-2.23858243453279e-05,-0.00179872520827384,-0.00228943822719518,-5.57424675395879e-06,-4.75981272707315e-06,8.87584697917276e-06,-2.34224248352177e-06,0.0467985960710298,-0.00200407616390752,-6.97404381355682e-07,1.16370434266599e-06,-0.001028738687471,-0.000127225372827056,3.7474149809924e-06,-0.00162680099423707,-1.23837077170563e-05,-5.57424675395879e-06,-3.01849767092577e-05,1.15141478227443e-05,-0.00017856711162878,3.7474149809924e-06,-1.04280976964688e-05,5.61031513512944e-06,-0.00148844035432649,-0.000887400041540864,1.3010740437025e-05,-5.57424675395879e-06,-1.41924713403796e-06,1.50688048705661e-06,1.12844966615455e-05,-6.95683401126246e-05,-0.00126564741595292,-6.97404381355682e-07,-1.41924713403796e-06,-0.000828216321171027,-0.00185363806018746,-0.00206091909841355,2.46186063419529e-05,-4.98375256299255e-05,5.61031513512944e-06,-0.000887400041540864,1.42800599549631e-05,-0.00185363806018746,1.46666318618927e-05,-6.95683401126246e-05,-0.00211699924690034,-0.00164859242304516,-0.00126564741595292,-0.00162680099423707,1.50688048705661e-06,-0.000887400041540864,1.82857924002633e-05,-1.04280976964688e-05,1.32097817280297e-05,-3.01849767092577e-05,-0.00246002354175001,-6.97404381355682e-07,-0.000423255983887039,-0.00374060454504566,-1.50933973657175e-05,-0.00220277485246445,-0.00169821304682127,-0.00628632178624056
"6:76487487:C:T",-0.00425930750637704,-0.00271980280404982,-8.03490300755882e-05,-0.00183529203928945,-0.00192506671663129,-2.11929402711419e-05,-1.80468915900178e-05,3.5196996008402e-05,-0.000480442879283061,-0.00200407616390752,0.0897077844993257,-2.80335034918977e-06,-0.0021387461952429,7.99653435814562e-05,-0.000501751163889175,1.46314457598606e-05,5.77440739748525e-05,-0.00163857188910566,-2.11929402711419e-05,-0.00464050497853652,-0.00367129965515556,-0.000775320622803832,1.46314457598606e-05,-3.88098238817136e-05,-0.0024376809134905,9.82248957317466e-05,-0.00125256152876752,-0.00118242346891329,-2.11929402711419e-05,-5.68909259435202e-06,5.34252991091222e-06,-0.00372495865246769,-0.00440920869927197,5.34763932051874e-05,-2.80335034918977e-06,-5.68909259435202e-06,-0.00140706421579262,0.000314681907767955,-0.00425930750637704,-0.00112638726383274,-0.00494915383660999,-0.0024376809134905,-0.0012525615287684,-0.00163892237339347,0.000314681907767955,-0.0034643099907461,-0.00440920869927197,-0.00196923131279014,-0.0016484347689385,5.34763932051874e-05,5.77440739748525e-05,5.34252991091222e-06,-0.0012525615287684,7.84483230020783e-05,-3.88098238817136e-05,5.4431856597148e-05,-0.00464050497853652,-0.00129667532657152,-2.80335034918977e-06,9.43990835367003e-06,-0.00571242200777178,-5.51837236795194e-05,-0.00214546337375188,-0.000173079973317058,-0.00726069269776808
"6:76487551:G:A",-6.97456917109207e-07,-1.94521041141371e-06,-7.2771241379499e-06,-1.39573570514528e-05,-0.00232588037756809,-1.81071460403359e-06,-1.5485391680059e-06,2.89990731960899e-06,-5.94227651706802e-06,-6.97404381355682e-07,-2.80335034918977e-06,0.0331594543698408,3.90129472727097e-07,6.05149823851292e-06,-6.25845220385557e-05,1.22150336778759e-06,4.59946039477188e-06,-4.0195567185819e-06,-1.81071460403359e-06,-1.95832450726741e-05,-0.00290377692869992,-0.00225227725603006,1.22150336778759e-06,-3.39048759556704e-06,1.83548645527054e-06,7.19419138128785e-06,-0.00255995193278125,4.24279011923545e-06,-1.81071460403359e-06,-4.56918383129334e-07,5.00475974440917e-07,-0.00285182698772601,-0.00235763969425395,4.24279011923545e-06,9.84416599614235e-06,-4.56918383129334e-07,-0.00251471206189002,-4.3510528824342e-06,-6.97456917109207e-07,8.02426158053038e-06,-2.71040545918311e-05,1.83548645527054e-06,-0.00255995193278125,4.66325725501093e-06,-4.3510528824342e-06,-0.00302726335614611,-0.00235763969425395,3.1434549940812e-06,-0.00198140385692192,4.24279011923545e-06,4.59946039477188e-06,5.00475974440917e-07,-0.00255995193278125,5.96196455937559e-06,-3.39048759556704e-06,4.30683924879105e-06,-1.95832450726741e-05,-2.04332531188456e-05,9.84416599614235e-06,8.20164051340555e-07,-6.36029873213317e-06,-4.91064531615848e-06,-7.68195275657746e-06,-0.00273331756825357,-3.63910017862068e-05
"6:76488525:G:T",1.12753891379214e-06,2.94614158580231e-06,6.88196762954618e-06,-0.00377544192551671,-0.00244448511683615,2.77593303632528e-06,2.43174917891054e-06,-6.8295130795093e-06,-0.000514541843242178,1.16370434266599e-06,-0.0021387461952429,3.90129472727097e-07,0.0528391133768973,-1.97307431051286e-05,-0.000122987589568524,-2.45053097280845e-06,-1.28483019166126e-05,5.09108147905835e-06,2.77593303632528e-06,-0.0019403593298799,-0.00156248040151485,-0.00413407581713621,-2.45053097280845e-06,4.53995832394583e-06,-0.000582023604941639,-3.11450100607402e-05,-5.97356293865481e-05,-1.13536692758487e-05,2.77593303632528e-06,7.78189431116516e-07,-0.0018693625294679,-0.00159120461931916,-0.00456726129559648,-1.13536692758487e-05,3.90129472727097e-07,7.78189431116516e-07,-8.70458232782312e-05,-0.00198200548225191,1.12753891379214e-06,-3.44585613216708e-05,-0.0017810668894116,-0.000582023604941639,-5.97356293874363e-05,-0.00153697191058733,-0.00198200548225191,-0.00147518697514482,-0.00456726129559648,-0.00171508598103554,-0.00243012622099581,-1.13536692758487e-05,-1.28483019166126e-05,-9.67712718846769e-07,-5.97356293874363e-05,-1.92533018186225e-05,4.53995832394583e-06,-1.15933172208926e-05,-0.0019403593298799,-0.00483919320695136,3.90129472727097e-07,-1.60295322437776e-06,6.54346471229417e-06,5.75912964606573e-06,-0.000944506885101504,-0.00026823926233277,-0.00114882488399548
"6:76491943:A:G",-0.000987915802078021,5.89338638787851e-05,0.000203066901450555,0.000331254585702823,-0.00461733389164731,5.55646867175241e-05,4.89372121492693e-05,-0.000113406283193562,-0.00361188429977677,-0.001028738687471,7.99653435814562e-05,6.05149823851292e-06,-1.97307431051286e-05,0.0943503580424503,-0.00464082254218212,-4.29384135793853e-05,-0.000193839592918188,0.000116736490988423,5.55646867175241e-05,-0.00370178031293467,-0.00135658603024957,-0.00150103839852189,-4.29384135793853e-05,0.00010197959699898,-7.05498431639029e-05,-0.000341181946323488,-0.00827866331555516,-0.000168373623409934,5.55646867175241e-05,1.22380341469608e-05,-2.27475968621604e-05,-0.00235659372058361,-0.00159748139661886,0.000120806411519681,6.05149823851292e-06,1.22380341469608e-05,-0.0110985842004983,0.00012436877899713,-0.000987915802078021,-0.000397879710867244,-0.00349450661211748,-7.05498431639029e-05,-0.0109764595552386,-0.000669703021308976,0.00012436877899713,-0.00203187329028687,-0.00159748139661886,-0.000724177155073669,0.000229222056685963,0.000120806411519681,-0.000193839592918188,-2.27475968621604e-05,-0.0109764595552386,-0.000256935734156194,0.00010197959699898,-0.000170516786623942,-0.00370178031293467,-0.00157025787630172,6.05149823851292e-06,-0.000788342003954057,-0.00124353365312846,0.000144527677286455,-0.00560763263605768,-0.00276057882288594,-0.00243033636029999
"6:76495807:T:G",-0.00115080992377692,-0.000590784299286717,-0.000131484510700552,0.000535499423147456,-0.0021219006856863,-0.00247272084182359,-0.000396730545261015,-0.00071218920350713,-0.00396436056631533,-0.000127225372827056,-0.000501751163889175,-6.25845220385557e-05,-0.000122987589568524,-0.00464082254218212,0.0905809891258791,0.000267695115188538,-9.03081585734711e-06,-0.00170231135875909,-0.00247272084182359,-0.00182338787382319,0.000251946758718979,0.000473814397487615,0.000267695115188538,-0.00106678094761303,-0.000367459788322755,-0.00208674556030175,0.00071303953623314,-0.00223699784662923,-0.000546219509710788,-0.00175915355616052,-0.00222902056687424,-0.00242856195881735,0.00047393739960766,-0.0044609198920913,-6.25845220385557e-05,-0.00175915355616052,-0.00012208684091819,-0.00084062043872013,-0.00115080992377781,0.00118094939273616,-0.00144303724226269,-0.000367459788322755,0.000291424957945541,-0.00127381499658208,-0.00084062043872013,-0.00158127018851939,0.00047393739960766,-0.0123373413635459,-0.00165061056007154,-0.0044609198920913,-9.03081585734711e-06,-0.00463161055625605,0.000291424957945541,-0.0012132385311876,-0.00106678094761303,-0.000128479327169195,-0.00182338787382319,-0.00156507588522459,-6.25845220385557e-05,-0.000576054267797055,-0.00112807974619544,-0.00197104783620183,-0.00310227169073674,-0.00211838291608135,-0.00833033662812577
"6:76499172:G:A",3.43693911997178e-06,1.04289585758366e-05,3.5261682954868e-05,6.03847450433292e-05,-8.8471117924982e-06,9.75585167406479e-06,8.43188385601934e-06,-1.81879893856873e-05,-0.000100564782317569,3.7474149809924e-06,1.46314457598606e-05,1.22150336778759e-06,-2.45053097280845e-06,-4.29384135793853e-05,0.000267695115188538,-0.00320664144974092,0.000397143969412816,2.06153396238307e-05,9.75585167406479e-06,7.83821414156449e-05,-2.43520230869265e-05,-1.10473776606668e-05,0.00182032951166811,1.7691803494202e-05,-1.11647665104186e-05,-5.48618676949886e-05,0.000140666789837596,-2.77595479065695e-05,9.75585167406479e-06,2.47033254652251e-06,-3.06732684940414e-06,-2.38421687068779e-05,7.66629130222185e-06,-2.77595479065695e-05,1.22150336778759e-06,2.47033254652251e-06,0.000125690828872038,2.21277225627148e-05,3.43693911997178e-06,-6.48822270088445e-05,0.000100800927053335,-1.11647665104186e-05,0.000140666789837596,-3.12707491136877e-05,2.21277225627148e-05,-3.22070921523476e-05,7.66629130222185e-06,-1.82016444583155e-07,4.0380227226855e-05,-2.77595479065695e-05,-3.07941216055596e-05,-3.06732684940414e-06,0.000140666789837596,-4.21596593813689e-05,1.7691803494202e-05,-2.82244393945419e-05,7.83821414156449e-05,8.25858445434591e-05,1.22150336778759e-06,-4.87614766786493e-06,3.1187318391801e-05,2.48945964180791e-05,6.75322927818911e-05,-0.000116420098067671,0.000126268098341598
"6:76506691:A:T",-0.00271586737131013,4.22003510465174e-05,-0.00254331227104476,-0.000164174110482307,-4.11757215221797e-05,3.96997017375611e-05,3.477223453352e-05,-8.13769403036346e-05,-0.00229055084877494,-0.00162680099423707,5.77440739748525e-05,4.59946039477188e-06,-1.28483019166126e-05,-0.000193839592918188,-9.03081585734711e-06,0.000397143969412816,0.0544127702014183,8.25354230773456e-05,3.96997017375611e-05,-0.000749371869218862,-0.00333547885437824,3.44260763922577e-05,0.000397143969412816,-0.00200502312958761,-4.9959317270698e-05,9.39976023364153e-05,-5.14267881963626e-05,-0.00088650777121746,-0.00235098093717934,9.29231120938567e-06,-1.51739856137922e-05,-0.00328173893225703,2.76387302626802e-05,-0.00012318956072388,4.59946039477188e-06,9.29231120938567e-06,-0.000112498456371846,8.80446865290097e-05,-0.00271586737131013,-0.000302936273721244,-0.00083859850679513,-4.9959317270698e-05,-5.14267881972508e-05,-0.00120859788673577,8.80446865290097e-05,-0.00349680572730904,2.76387302626802e-05,-0.00803786085041835,-0.00212745244037382,-0.00012318956072388,-0.00144486742473493,-7.33986292242861e-05,-5.14267881972508e-05,-0.00080861674873578,-0.00200502312958761,-0.000124956733848158,-0.000749371869218862,-8.74554415215556e-05,4.59946039477188e-06,-0.0013717352911895,-0.00417088040309821,0.000100604764855738,-0.00330259920154941,-0.00046725388742086,0.000254118934441827
"6:76512484:A:G",-0.00544183639643947,-0.00315351845700995,-0.000109252605720478,-0.00020146520590103,-0.00234406014801003,-2.95775049687919e-05,0.000370579390721382,4.97417749878437e-05,6.52280099862068e-05,-1.23837077170563e-05,-0.00163857188910566,-4.0195567185819e-06,5.09108147905835e-06,0.000116736490988423,-0.00170231135875909,2.06153396238307e-05,8.25354230773456e-05,0.0600976316994561,-2.95775049687919e-05,-0.00162777252225776,6.59040665587085e-05,-5.73522768592127e-05,2.06153396238307e-05,-5.36475429102623e-05,3.04050263650879e-05,-0.00174981002638308,-0.00267484924120254,-0.00158452621927108,-2.95775049687919e-05,-8.14603825105564e-06,-0.00183920440215068,6.42679253095579e-05,-0.00178351748108518,7.6759412099392e-05,-4.0195567185819e-06,-8.14603825105564e-06,-0.00278819634343641,-0.00150607518998669,-0.00544183639643947,0.000170610849580477,-0.00178887154573726,3.04050263650879e-05,-0.00267484924120343,-0.000779443953886627,-0.00150607518998669,8.7041337585525e-05,-0.00178351748108518,-0.0056182508423861,-0.000127473536730704,7.6759412099392e-05,8.25354230773456e-05,7.12347407549885e-06,-0.00267484924120343,0.000114297724041812,-5.36475429102623e-05,7.82297328809634e-05,-0.00162777252225776,-0.000272320306029528,-4.0195567185819e-06,1.30590542983811e-05,-9.76046535772213e-05,-7.56777232986394e-05,-0.00175140688830133,-0.00234344547491894,-0.00272369619855883
"6:76515029:A:G",-6.01350009254986e-06,-1.48014111820416e-05,-5.09988544594719e-05,-0.00347093734017356,1.12679391515158e-05,0.000339759052751631,-1.17892195010683e-05,2.38644907080143e-05,-0.00375920541245556,-5.57424675395879e-06,-2.11929402711419e-05,-1.81071460403359e-06,2.77593303632528e-06,5.55646867175241e-05,-0.00247272084182359,9.75585167406479e-06,3.96997017375611e-05,-2.95775049687919e-05,0.0512393109161788,-0.00305864603670258,3.16664635091612e-05,-0.00192760824330573,9.75585167406479e-06,-2.50790646072474e-05,1.46565699239432e-05,6.93054537563853e-05,-0.000472873921888883,-0.00186872877512023,-1.37843575265251e-05,-3.66819194308476e-06,3.68850979270974e-06,3.0935675845889e-05,-0.00183423377321645,3.65225144252079e-05,-1.81071460403359e-06,-3.66819194308476e-06,-0.000459297948578907,-3.19182469841195e-05,-6.01350009254986e-06,8.15203697150935e-05,-0.00317487934856153,1.46565699239432e-05,-0.000472873921888883,4.03776969823966e-05,-3.19182469841195e-05,4.17068003466525e-05,-0.00183423377321645,-0.00212574634647655,-5.91806681322637e-05,3.65225144252079e-05,3.96997017375611e-05,-0.00270610321539078,-0.000472873921888883,-0.00528011949151797,-2.50790646072474e-05,3.71812569728291e-05,-0.00305864603670258,-0.000126386803005474,-1.81071460403359e-06,6.35576771124136e-06,-4.53032875062931e-05,-3.54461511440363e-05,-0.00731421143844369,-0.00231342726238548,-0.00358635764344228
"6:76516217:C:T",-0.000464017402325823,-0.000135931363538511,-0.00266615077725429,-0.00557133137166499,-0.000294823816791023,-0.00305864603670258,-0.000102285787490608,-0.0056587410074016,-0.0060349759626428,-3.01849767092577e-05,-0.00464050497853652,-1.95832450726741e-05,-0.0019403593298799,-0.00370178031293467,-0.00182338787382319,7.83821414156449e-05,-0.000749371869218862,-0.00162777252225776,-0.00305864603670258,0.105387428884927,5.94926502328619e-05,-0.00268995705493591,7.83821414156449e-05,-0.00140338254242689,4.92032190004821e-05,-0.00139888093951601,0.00016660532440893,0.000278315433710929,-0.000124501569938928,-3.99173854601642e-05,-0.0102882693935316,8.29128488577524e-05,-0.00129033172162485,-0.00328314436284405,-1.95832450726741e-05,-3.99173854601642e-05,0.000166756905617405,-0.00310469817201753,-0.000464017402325823,-0.000622255295605889,-0.00210258496790328,4.92032190004821e-05,0.000166605324408486,-0.00070373834994264,-0.00310469817201753,4.96331876904677e-05,-0.00129033172162485,-0.00381002638311978,-0.00174158362810495,-0.00328314436284405,-0.000749371869218862,-0.00433779703219361,0.000166605324408486,-0.00227189561707153,-0.00140338254242689,-0.000784428974903939,0.00165103463478022,-0.000501995267075728,-1.95832450726741e-05,-0.00437657777340483,-0.00148069127148887,-0.000118195623345585,-0.000189403305520752,-0.00681286778654444,-0.0030009122043424
"6:76516969:C:G",8.44999748395026e-06,-0.00216416005850473,0.000111493073926106,-0.00168469844969898,-0.00282459922769362,3.16664635091612e-05,2.76455564351963e-05,-6.37945632364634e-05,-0.000244193369857371,1.15141478227443e-05,-0.00367129965515556,-0.00290377692869992,-0.00156248040151485,-0.00135658603024957,0.000251946758718979,-2.43520230869265e-05,-0.00333547885437824,6.59040665587085e-05,3.16664635091612e-05,5.94926502328619e-05,0.084939089279688,-0.00829922276443984,-2.43520230869265e-05,5.71918669658444e-05,-0.00137261189400117,7.26106038291263e-05,-0.00114095790025948,-0.000832737520349625,3.16664635091612e-05,-0.00183264763678359,-1.15466894010652e-05,0.0004904888239885,-0.00669384914751969,-0.00182617780064742,-0.00290377692869992,-0.00183264763678359,-0.00100269819003307,-0.00182758981209918,8.44999748395026e-06,-0.000237851751105467,0.000119911641060177,-0.00137261189400117,-0.00114095790026125,-0.00318323491612116,-0.00182758981209918,-0.000898583780769791,-0.00669384914751969,-0.00355446064313369,-0.00199393609789933,-0.00182617780064742,-0.00333547885437824,-1.15466894010652e-05,-0.00114095790026125,-0.000150221277531948,5.71918669658444e-05,-9.85198009280097e-05,5.94926502328619e-05,0.000244099119083963,-0.00290377692869992,-1.71471198129325e-05,-0.000195343540840831,8.00126708995208e-05,-0.00400998664965702,-0.000320406739999335,-0.00241110941065426
"6:76517896:G:A",-0.0019192605364573,-0.0053501072984945,1.53373148723546e-05,-0.00380648487372159,-0.00545020472602964,-0.00192760824330573,-0.00516921548157789,-9.43994219770872e-06,-0.000220815225933979,-0.00017856711162878,-0.000775320622803832,-0.00225227725603006,-0.00413407581713621,-0.00150103839852189,0.000473814397487615,-1.10473776606668e-05,3.44260763922577e-05,-5.73522768592127e-05,-0.00192760824330573,-0.00268995705493591,-0.00829922276443984,0.159564931876818,-1.10473776606668e-05,-0.00293356292772273,-0.00312340284930102,-2.30912565690744e-06,-0.00529681665268056,-0.000283410131382666,-0.00252846575421728,-8.14943185734052e-05,-0.00839083552715536,-0.00836732816053853,0.000344551447980734,-0.00198759774702939,-0.00225227725603006,-8.14943185734052e-05,-0.00508027062372207,-0.00060455998038389,-0.0019192605364573,7.76264792730075e-05,-0.00436007514532388,-0.00312340284930102,-0.00529681665268145,-0.000484944994272318,-0.00060455998038389,-0.00772456756927475,0.000344551447980734,-0.00591381798398194,-0.000895739756939129,-0.00198759774702939,3.44260763922577e-05,-4.50461860257434e-06,-0.00529681665268145,-0.000621373114380042,-0.00293356292772273,-0.00122711707889422,-0.0026899570549368,-0.00783272612158648,-0.00225227725603006,4.12885408014319e-05,-0.00264466161836641,-0.00232200360251245,-0.0034578593353598,-0.00357233352515163,-0.00706050153446069
"6:76520736:G:T",3.43693911997178e-06,1.04289585758366e-05,3.5261682954868e-05,6.03847450433292e-05,-8.8471117924982e-06,9.75585167406479e-06,8.43188385601934e-06,-1.81879893856873e-05,-0.000100564782317569,3.7474149809924e-06,1.46314457598606e-05,1.22150336778759e-06,-2.45053097280845e-06,-4.29384135793853e-05,0.000267695115188538,0.00182032951166811,0.000397143969412816,2.06153396238307e-05,9.75585167406479e-06,7.83821414156449e-05,-2.43520230869265e-05,-1.10473776606668e-05,-0.00320664144974092,1.7691803494202e-05,-1.11647665104186e-05,-5.48618676949886e-05,0.000140666789837596,-2.77595479065695e-05,9.75585167406479e-06,2.47033254652251e-06,-3.06732684940414e-06,-2.38421687068779e-05,7.66629130222185e-06,-2.77595479065695e-05,1.22150336778759e-06,2.47033254652251e-06,0.000125690828872038,2.21277225627148e-05,3.43693911997178e-06,-6.48822270088445e-05,0.000100800927053335,-1.11647665104186e-05,0.000140666789837596,-3.12707491136877e-05,2.21277225627148e-05,-3.22070921523476e-05,7.66629130222185e-06,-1.82016444583155e-07,4.0380227226855e-05,-2.77595479065695e-05,-3.07941216055596e-05,-3.06732684940414e-06,0.000140666789837596,-4.21596593813689e-05,1.7691803494202e-05,-2.82244393945419e-05,7.83821414156449e-05,8.25858445434591e-05,1.22150336778759e-06,-4.87614766786493e-06,3.1187318391801e-05,2.48945964180791e-05,6.75322927818911e-05,-0.000116420098067671,0.000126268098341598
"6:76522921:C:T",-1.19579935624614e-05,-0.00115240143735118,-9.16247650355473e-05,-0.000165827603885838,1.98342797421702e-05,-2.50790646072474e-05,-2.13733578782183e-05,4.3038100094428e-05,-0.000326183700636307,-1.04280976964688e-05,-3.88098238817136e-05,-3.39048759556704e-06,4.53995832394583e-06,0.00010197959699898,-0.00106678094761303,1.7691803494202e-05,-0.00200502312958761,-5.36475429102623e-05,-2.50790646072474e-05,-0.00140338254242689,5.71918669658444e-05,-0.00293356292772273,1.7691803494202e-05,0.0551559098507024,2.62607718592989e-05,-0.00212117958840174,-0.00113380920241735,6.65760424416462e-05,-0.00108684031315498,-6.86545936190441e-06,-0.00311109589950931,5.57817712127928e-05,-0.00308161927347861,6.65760424416462e-05,-3.39048759556704e-06,-6.86545936190441e-06,-0.00110148415897449,-5.79505975348837e-05,-1.19579935624614e-05,0.000150713223203702,-0.00138845001692456,2.62607718592989e-05,-0.00113380920241823,7.31598158907332e-05,-5.79505975348837e-05,7.57506125568241e-05,-0.00308161927347861,1.59271316313436e-06,-0.00108164415069201,6.65760424416462e-05,-0.00200502312958761,6.256899316881e-06,-0.00113380920241823,9.98333390933581e-05,0.000977860265847674,6.78509587022091e-05,-0.00140338254242689,-0.000223401015404079,-3.39048759556704e-06,1.12795477162919e-05,-8.18397587085684e-05,-0.000424648866538035,-0.00714204748643787,-0.0163423919999994,-0.000629187427047206
"6:76524318:C:T",4.93325453465587e-06,1.56391736005901e-05,5.07771333895235e-05,-0.00191785153922996,-0.00277185850365669,1.46565699239432e-05,1.27179012840983e-05,-2.88838463280428e-05,-0.00370262342694883,5.61031513512944e-06,-0.0024376809134905,1.83548645527054e-06,-0.000582023604941639,-7.05498431639029e-05,-0.000367459788322755,-1.11647665104186e-05,-4.9959317270698e-05,3.04050263650879e-05,1.46565699239432e-05,4.92032190004821e-05,-0.00137261189400117,-0.00312340284930102,-1.11647665104186e-05,2.62607718592989e-05,0.0529324006176455,-0.000361078154540451,-0.00215723194473316,-4.45824735271216e-05,1.46565699239432e-05,3.70528725834873e-06,-0.00165406145258729,-0.00140070571925044,-0.00380587493736506,-4.45824735271216e-05,1.83548645527054e-06,3.70528725834873e-06,-0.0022547703243383,-0.00227163062258651,4.93325453465587e-06,-0.000110255498529277,7.45923712504037e-05,0.000208553968317204,-0.00215723194473405,-0.00135519010816942,-0.00227163062258651,-0.00129455087189712,-0.00380587493736506,-0.00118820204730952,-0.0021599333809954,-4.45824735271216e-05,-4.9959317270698e-05,-4.85710285147434e-06,-0.00215723194473405,-6.92494083853745e-05,2.62607718592989e-05,-4.53359915484342e-05,4.92032189995939e-05,-0.00151388639843653,1.83548645527054e-06,-7.6121570797838e-06,4.51762719722026e-05,3.65239225184055e-05,-0.00276413703770784,-1.90309357472884e-05,-0.00216957259491402
"6:76524873:G:A",6.83682906199579e-06,7.33023078725026e-05,-0.0018405484283992,-0.000303427709843263,-7.89149601558847e-05,6.93054537563853e-05,6.14398336953315e-05,-0.000450302917297307,-0.000963038165930907,-0.00148844035432649,9.82248957317466e-05,7.19419138128785e-06,-3.11450100607402e-05,-0.000341181946323488,-0.00208674556030175,-5.48618676949886e-05,9.39976023364153e-05,-0.00174981002638308,6.93054537563853e-05,-0.00139888093951601,7.26106038291263e-05,-2.30912565690744e-06,-5.48618676949886e-05,-0.00212117958840174,-0.000361078154540451,0.043074049055349,-0.000343291007252056,-0.00021894276762513,-0.0024928272491147,1.45456367528496e-05,-3.08836371214483e-05,5.51795249315035e-05,7.23899331518396e-05,-0.00021894276762513,7.19419138128785e-06,1.45456367528496e-05,-0.000444883808700336,0.00015360754585636,6.83682906199579e-06,-0.00115586442787574,-0.00158478878693646,-0.000361078154540451,-0.000343291007252944,-0.000551495022317994,0.00015360754585636,6.83809612072039e-05,7.23899331518396e-05,2.18804744811507e-05,-0.00364768041328833,-0.00021894276762513,9.39976023364153e-05,-3.08836371214483e-05,-0.000343291007252944,-0.000337447628321996,-0.00212117958840174,-0.00022144127638235,-0.00139888093951601,-0.00100143911909711,7.19419138128785e-06,-0.00336957506002022,-0.00494080794364482,0.00017985906959872,-0.00224438984524333,-0.000870878464819924,-0.00272802235304681
"6:76536333:A:C",-0.00353432843622503,-0.00626376561252684,0.000296081741395504,-0.00352526884564153,-0.000531671099602615,-0.000472873921888883,-0.000193805654678414,0.000129030765062321,-0.00508168002709919,-0.000887400041540864,-0.00125256152876752,-0.00255995193278125,-5.97356293865481e-05,-0.00827866331555516,0.00071303953623314,0.000140666789837596,-5.14267881963626e-05,-0.00267484924120254,-0.000472873921888883,0.00016660532440893,-0.00114095790025948,-0.00529681665268056,0.000140666789837596,-0.00113380920241735,-0.00215723194473316,-0.000343291007252056,0.126589344955103,-0.00152507260589818,-0.000472873921888883,-0.00516150247746427,-0.000488273615931512,-0.00258850337328154,-0.0017781357030513,-0.00936982424395261,-0.00255995193278125,-0.00516150247746427,-0.00308334447337977,-0.000889778200259261,-0.00353432843622503,0.00067616356970035,0.000530055862351109,-0.00215723194473316,-0.000878095608995544,-0.000340007108844631,-0.000889778200259261,-0.0030035300929705,-0.0017781357030513,-0.00452690723305338,0.000680121143765255,-0.00936982424395261,-5.14267881963626e-05,-0.000500988587703866,-0.000878095608995544,-0.000169127167982452,-0.00113380920241735,0.000309081166667724,0.000166605324408042,-0.00214854431708966,-0.00255995193278125,-0.00456615116037451,-0.000469226720559934,-0.00140451357253468,-0.00103479905739601,-0.00499657404076626,-0.00515469051021045
"6:76536947:T:C",8.96981571063549e-06,-0.00852066691831155,-0.00218674382030137,-0.00115375378266425,-3.66165924425843e-05,-0.00186872877512023,-0.00451362824517521,-7.216129527432e-05,-0.000253732291673359,1.3010740437025e-05,-0.00118242346891329,4.24279011923545e-06,-1.13536692758487e-05,-0.000168373623409934,-0.00223699784662923,-2.77595479065695e-05,-0.00088650777121746,-0.00158452621927108,-0.00186872877512023,0.000278315433710929,-0.000832737520349625,-0.000283410131382666,-2.77595479065695e-05,6.65760424416462e-05,-4.45824735271216e-05,-0.00021894276762513,-0.00152507260589818,0.0676324887493269,3.65225144252079e-05,8.57867336545581e-06,-0.00106519518753778,-0.000859815018039889,-0.00386352394088618,-0.000108568085177119,4.24279011923545e-06,8.57867336545581e-06,-0.0024133596841871,-0.00132516800519067,8.96981571063549e-06,-0.000257265550501984,0.000359405310697447,-4.45824735271216e-05,-0.00152507260589907,-0.000124778596199526,-0.00132516800519067,-0.000772338879851731,-0.00386352394088618,-0.00159900177732197,0.000149953892176313,-0.000108568085177119,-0.00088650777121746,-0.000673621336847674,-0.00152507260589907,-0.000424579727843266,6.65760424416462e-05,-0.000110139902356643,0.000278315433710929,0.000304755706778792,4.24279011923545e-06,-1.97378469808385e-05,-0.00153575450094934,-0.00262676703985765,-0.00228375535997394,-0.00495409157048066,-0.00543258002728031
"6:76552062:A:C",-6.01350009254986e-06,-0.0014537291760135,-5.09988544594719e-05,-9.21960218303042e-05,1.12679391515158e-05,-1.37843575265251e-05,-1.17892195010683e-05,2.38644907080143e-05,-0.000118929148923641,-5.57424675395879e-06,-2.11929402711419e-05,-1.81071460403359e-06,2.77593303632528e-06,5.55646867175241e-05,-0.000546219509710788,9.75585167406479e-06,-0.00235098093717934,-2.95775049687919e-05,-1.37843575265251e-05,-0.000124501569938928,3.16664635091612e-05,-0.00252846575421728,9.75585167406479e-06,-0.00108684031315498,1.46565699239432e-05,-0.0024928272491147,-0.000472873921888883,3.65225144252079e-05,0.0501683118130387,-3.66819194308476e-06,-0.00270610321539078,3.0935675845889e-05,-0.0026560833830116,3.65225144252079e-05,-1.81071460403359e-06,-3.66819194308476e-06,-0.000459297948578907,-3.19182469841195e-05,-6.01350009254986e-06,8.15203697150935e-05,-0.00016287217534483,1.46565699239432e-05,-0.000472873921888883,4.03776969823966e-05,-3.19182469841195e-05,4.17068003466525e-05,-0.0026560833830116,-8.37984644093126e-05,-0.00134855564330127,3.65225144252079e-05,-0.00235098093717934,3.68850979270974e-06,-0.000472873921888883,5.44786163096944e-05,-0.00108684031315498,3.71812569728291e-05,-0.000124501569938928,-0.000126386803005474,-1.81071460403359e-06,6.35576771124136e-06,-4.53032875062931e-05,-3.54461511440363e-05,-0.00625054431695471,-0.0146202882223259,-0.00358635764344228
"6:76554593:G:A",-0.00213458153822277,-0.00185028617290417,-1.47367571683432e-05,-2.83597253556422e-05,2.91647322114841e-06,-3.66819194308476e-06,-3.13468242207904e-06,5.85795023777536e-06,-0.0020237696446026,-1.41924713403796e-06,-5.68909259435202e-06,-4.56918383129334e-07,7.78189431116516e-07,1.22380341469608e-05,-0.00175915355616052,2.47033254652251e-06,9.29231120938567e-06,-8.14603825105564e-06,-3.66819194308476e-06,-3.99173854601642e-05,-0.00183264763678359,-8.14943185734052e-05,2.47033254652251e-06,-6.86545936190441e-06,3.70528725834873e-06,1.45456367528496e-05,-0.00516150247746427,8.57867336545581e-06,-3.66819194308476e-06,0.0459248681285169,1.00286335324995e-06,-0.0018617905987286,-0.000456340814564804,8.57867336545581e-06,-4.56918383129334e-07,1.9912903341357e-05,-0.00506911537241628,-8.82106938249194e-06,-0.00213458153822277,1.62284268032664e-05,-0.00188300275095798,3.70528725834873e-06,-0.00516150247746516,9.42230626232998e-06,-8.82106938249194e-06,-0.00173956913021822,-0.000456340814564804,-0.000712803149666819,-1.7315175770527e-05,8.57867336545581e-06,9.29231120938567e-06,1.00286335324995e-06,-0.00516150247746516,-0.00135079780736547,-6.86545936190441e-06,8.70903365690623e-06,-3.99173854601642e-05,-4.14009829166062e-05,-4.56918383129334e-07,1.65363661253082e-06,-0.0016978484234782,-0.00109166877167421,9.96671378850067e-06,-0.000627651902232351,-0.00159403880687048
"6:76558799:G:A",-0.00191552647932536,-0.00250847975457091,-0.000274390566506355,-0.0022368496229932,-3.75907814476051e-06,3.68850979270974e-06,-0.00163981761928778,-8.30074343571852e-06,-0.00103755365540703,1.50688048705661e-06,5.34252991091222e-06,5.00475974440917e-07,-0.0018693625294679,-2.27475968621604e-05,-0.00222902056687424,-3.06732684940414e-06,-1.51739856137922e-05,-0.00183920440215068,3.68850979270974e-06,-0.0102882693935316,-1.15466894010652e-05,-0.00839083552715536,-3.06732684940414e-06,-0.00311109589950931,-0.00165406145258729,-3.08836371214483e-05,-0.000488273615931512,-0.00106519518753778,-0.00270610321539078,1.00286335324995e-06,0.0957060690658649,-1.12623778116827e-05,-0.006123630917239,-1.34850293571631e-05,5.00475974440917e-07,1.00286335324995e-06,-0.000512638559905021,7.55087799664267e-06,-0.00191552647932536,-3.8414332193426e-05,-0.00996071909942131,-0.00165406145258729,-0.0004882736159324,-1.54592769314732e-05,7.55087799664267e-06,-1.60234700059547e-05,-0.006123630917239,-0.00471933466238106,1.15066268353559e-05,-1.34850293571631e-05,-1.51739856137922e-05,-1.2330628242907e-06,-0.0004882736159324,-2.22300795327257e-05,-0.00311109589950931,-1.37546089939988e-05,-0.0102882693935324,1.2603342336881e-05,5.00475974440917e-07,-2.02434457818867e-06,-4.91701241553955e-05,8.25441374896485e-06,-0.00107128593408135,-0.00548682374831877,-0.000263402900127829
"6:76560624:A:T",-0.00162102162197186,-0.00219398232854129,0.000108388758461864,-0.00171995988289275,-0.00277192597010067,3.0935675845889e-05,2.70050066131233e-05,-6.25462051058179e-05,-0.00143265392947445,1.12844966615455e-05,-0.00372495865246769,-0.00285182698772601,-0.00159120461931916,-0.00235659372058361,-0.00242856195881735,-2.38421687068779e-05,-0.00328173893225703,6.42679253095579e-05,3.0935675845889e-05,8.29128488577524e-05,0.0004904888239885,-0.00836732816053853,-2.38421687068779e-05,5.57817712127928e-05,-0.00140070571925044,5.51795249315035e-05,-0.00258850337328154,-0.000859815018039889,3.0935675845889e-05,-0.0018617905987286,-1.12623778116827e-05,0.10048174914824,-0.00676987392089679,-0.00187645290409222,-0.00285182698772601,-0.0018617905987286,-9.66135423916548e-05,-0.00185848674033817,-0.00162102162197097,-0.000234945453132518,0.00013988908757856,-0.00140070571924955,-0.00018225300587682,-0.00312948517332146,-0.00185848674033817,-0.00152637382264853,-0.00676987392089679,-0.00699798626231285,-0.00194516648317045,-0.00187645290409222,-0.00328173893225703,-1.12623778116827e-05,-0.00018225300587682,-0.000147887012361458,5.57817712127928e-05,-9.67814133785438e-05,8.29128488577524e-05,0.00023495933491624,-0.00285182698772601,-1.67625725877585e-05,-0.000167000430660202,7.79251062033026e-05,-0.00606849728902326,-0.000378854358067393,-0.0048266089053266
"6:76560707:T:C",-0.00163935429449769,-0.00187900260158358,-7.66525648652205e-05,-0.00399755375011868,-0.00275079341270246,-0.00183423377321645,-1.2382096954866e-05,-4.92706180841296e-05,-0.000156007338052877,-6.95683401126246e-05,-0.00440920869927197,-0.00235763969425395,-0.00456726129559648,-0.00159748139661886,0.00047393739960766,7.66629130222185e-06,2.76387302626802e-05,-0.00178351748108518,-0.00183423377321645,-0.00129033172162485,-0.00669384914751969,0.000344551447980734,7.66629130222185e-06,-0.00308161927347861,-0.00380587493736506,7.23899331518396e-05,-0.0017781357030513,-0.00386352394088618,-0.0026560833830116,-0.000456340814564804,-0.006123630917239,-0.00676987392089679,0.139308424075949,-0.0021237535087657,-0.00235763969425395,-0.000456340814564804,-0.00255248257684171,-0.00410164007339908,-0.0016393542944968,5.29423203632362e-05,-0.00174970001543517,-0.00380587493736506,-0.00177813570305085,-0.000599732336969083,-0.00410164007339908,-0.00624943088887164,0.00189825146037492,-0.00789352793933196,-0.00108795274833895,-0.0021237535087657,2.76387302626802e-05,-0.00234093328177742,-0.00177813570305085,-0.00049190163556645,-0.00308161927347861,-0.00113553293641555,-0.00129033172162396,-0.00499168181959408,-0.00235763969425395,1.59771190233471e-06,-0.000521920062934278,-0.00726526975203878,-0.00230258053379195,-0.00244620043299948,-0.00406457354121503
"6:76563890:C:T",-0.00376591430856976,3.88649278972863e-05,0.000132143254011119,0.000219164396326299,-0.00404490320693895,3.65225144252079e-05,3.19134092405804e-05,-7.216129527432e-05,-0.00485020836714511,-0.00126564741595292,5.34763932051874e-05,4.24279011923545e-06,-1.13536692758487e-05,0.000120806411519681,-0.0044609198920913,-2.77595479065695e-05,-0.00012318956072388,7.6759412099392e-05,3.65225144252079e-05,-0.00328314436284405,-0.00182617780064742,-0.00198759774702939,-2.77595479065695e-05,6.65760424416462e-05,-4.45824735271216e-05,-0.00021894276762513,-0.00936982424395261,-0.000108568085177119,3.65225144252079e-05,8.57867336545581e-06,-1.34850293571631e-05,-0.00187645290409222,-0.0021237535087657,0.0937623708782782,4.24279011923545e-06,8.57867336545581e-06,-0.00946091210544608,8.20227611972868e-05,-0.00376591430856976,-0.000257265550501984,-0.00312249070941473,-4.45824735271216e-05,-0.0093698242439535,-0.000831158981760893,8.20227611972868e-05,-0.00166430919123162,-0.00212375350876659,-0.000209951520011131,0.000149953892176313,0.0019018056173028,-0.00012318956072388,-1.34850293571631e-05,-0.0093698242439535,-0.000165822178617603,6.65760424416462e-05,-0.000110139902356643,-0.00328314436284405,-0.00196802907457094,4.24279011923545e-06,-0.00100780240041498,-0.00153575450094934,9.39211698316456e-05,-0.00561332850775997,-0.00221193878828441,-0.00126286375171158
"6:76564897:T:C",-6.97456917109207e-07,-1.94521041141371e-06,-7.2771241379499e-06,-1.39573570514528e-05,-0.00232588037756809,-1.81071460403359e-06,-1.5485391680059e-06,2.89990731960899e-06,-5.94227651706802e-06,-6.97404381355682e-07,-2.80335034918977e-06,9.84416599614235e-06,3.90129472727097e-07,6.05149823851292e-06,-6.25845220385557e-05,1.22150336778759e-06,4.59946039477188e-06,-4.0195567185819e-06,-1.81071460403359e-06,-1.95832450726741e-05,-0.00290377692869992,-0.00225227725603006,1.22150336778759e-06,-3.39048759556704e-06,1.83548645527054e-06,7.19419138128785e-06,-0.00255995193278125,4.24279011923545e-06,-1.81071460403359e-06,-4.56918383129334e-07,5.00475974440917e-07,-0.00285182698772601,-0.00235763969425395,4.24279011923545e-06,0.0331594543698408,-4.56918383129334e-07,-0.00251471206189002,-4.3510528824342e-06,-6.97456917109207e-07,8.02426158053038e-06,-2.71040545918311e-05,1.83548645527054e-06,-0.00255995193278125,4.66325725501093e-06,-4.3510528824342e-06,-0.00302726335614611,-0.00235763969425395,3.1434549940812e-06,-0.00198140385692192,4.24279011923545e-06,4.59946039477188e-06,5.00475974440917e-07,-0.00255995193278125,5.96196455937559e-06,-3.39048759556704e-06,4.30683924879105e-06,-1.95832450726741e-05,-2.04332531188456e-05,9.84416599614235e-06,8.20164051340555e-07,-6.36029873213317e-06,-4.91064531615848e-06,-7.68195275657746e-06,-0.00273331756825357,-3.63910017862068e-05
"6:76573647:T:C",-0.00213458153822277,-0.00185028617290417,-1.47367571683432e-05,-2.83597253556422e-05,2.91647322114841e-06,-3.66819194308476e-06,-3.13468242207904e-06,5.85795023777536e-06,-0.0020237696446026,-1.41924713403796e-06,-5.68909259435202e-06,-4.56918383129334e-07,7.78189431116516e-07,1.22380341469608e-05,-0.00175915355616052,2.47033254652251e-06,9.29231120938567e-06,-8.14603825105564e-06,-3.66819194308476e-06,-3.99173854601642e-05,-0.00183264763678359,-8.14943185734052e-05,2.47033254652251e-06,-6.86545936190441e-06,3.70528725834873e-06,1.45456367528496e-05,-0.00516150247746427,8.57867336545581e-06,-3.66819194308476e-06,1.9912903341357e-05,1.00286335324995e-06,-0.0018617905987286,-0.000456340814564804,8.57867336545581e-06,-4.56918383129334e-07,0.0459248681285169,-0.00506911537241628,-8.82106938249194e-06,-0.00213458153822277,1.62284268032664e-05,-0.00188300275095798,3.70528725834873e-06,-0.00516150247746516,9.42230626232998e-06,-8.82106938249194e-06,-0.00173956913021822,-0.000456340814564804,-0.000712803149666819,-1.7315175770527e-05,8.57867336545581e-06,9.29231120938567e-06,1.00286335324995e-06,-0.00516150247746516,-0.00135079780736547,-6.86545936190441e-06,8.70903365690623e-06,-3.99173854601642e-05,-4.14009829166062e-05,-4.56918383129334e-07,1.65363661253082e-06,-0.0016978484234782,-0.00109166877167421,9.96671378850067e-06,-0.000627651902232351,-0.00159403880687048
"6:76574145:T:C",-0.00346181653978483,-0.00632438473164143,0.000340077290158725,-0.00340951862606786,-0.000513590423943722,-0.000459297948578907,-0.000172254355762291,0.000124029012778859,-0.00557281701512169,-0.000828216321171027,-0.00140706421579262,-0.00251471206189002,-8.70458232782312e-05,-0.0110985842004983,-0.00012208684091819,0.000125690828872038,-0.000112498456371846,-0.00278819634343641,-0.000459297948578907,0.000166756905617405,-0.00100269819003307,-0.00508027062372207,0.000125690828872038,-0.00110148415897449,-0.0022547703243383,-0.000444883808700336,-0.00308334447337977,-0.0024133596841871,-0.000459297948578907,-0.00506911537241628,-0.000512638559905021,-9.66135423916548e-05,-0.00255248257684171,-0.00946091210544608,-0.00251471206189002,-0.00506911537241628,0.133831553930131,-0.00102854342887104,-0.00346181653978483,0.000728334005484665,0.000586589134881965,-0.00225477032433741,0.000842142194761308,-0.000381848499141135,-0.00102854342887104,-0.000475028812202627,-0.0025524825768426,-0.00454245396615871,0.000719733605726081,-0.00946091210544608,-0.000365368739147609,-0.00410019295681963,0.000842142194761308,-6.96993258211265e-05,-0.00110148415897449,0.000340202492497887,0.000166756905617405,-0.00208418969137103,-0.00251471206188913,-0.00450735283966441,-0.000421788126553135,-0.00480885538525389,-0.00129711384809506,-0.00518010965164617,-0.00685535220721212
"6:76581045:C:G",-0.00394567887343555,-0.00290241145079762,-0.000118413481443369,-0.00174788524158132,-0.0020887319259435,-3.19182469841195e-05,-2.71064874182159e-05,5.31937428780438e-05,-0.000357144548070565,-0.00185363806018746,0.000314681907767955,-4.3510528824342e-06,-0.00198200548225191,0.00012436877899713,-0.00084062043872013,2.21277225627148e-05,8.80446865290097e-05,-0.00150607518998669,-3.19182469841195e-05,-0.00310469817201753,-0.00182758981209918,-0.00060455998038389,2.21277225627148e-05,-5.79505975348837e-05,-0.00227163062258651,0.00015360754585636,-0.000889778200259261,-0.00132516800519067,-3.19182469841195e-05,-8.82106938249194e-06,7.55087799664267e-06,-0.00185848674033817,-0.00410164007339908,8.20227611972868e-05,-4.3510528824342e-06,-8.82106938249194e-06,-0.00102854342887104,0.0658212120094088,-0.00394567887343555,-0.00123156636966826,-0.00335620574961215,-0.00227163062258651,-0.000889778200258817,-0.00177975659257346,0.00231879091334708,-0.00171393482339166,-0.00410164007339997,-0.00201556117275814,-0.00153727434468021,8.20227611972868e-05,8.80446865290097e-05,7.55087799664267e-06,-0.000889778200258817,0.000121775584611683,-5.79505975348837e-05,8.35961618523839e-05,-0.00310469817201753,-0.00123029911005812,-4.3510528824342e-06,1.39682974218402e-05,-0.00292023646510309,-8.1826347418712e-05,-5.83315088125147e-05,-0.00026627420184866,-0.00338605876241438
"6:76582542:G:C",9.44086433296576e-06,-6.50298677928873e-06,-0.00321547022897128,-0.00725616035096532,-0.00181253805034398,-6.01350009254986e-06,-5.0741806107979e-06,-9.18239376090924e-05,-0.000265395172981187,-0.00206091909841355,-0.00425930750637704,-6.97456917109207e-07,1.12753891379214e-06,-0.000987915802078021,-0.00115080992377781,3.43693911997178e-06,-0.00271586737131013,-0.00544183639643947,-6.01350009254986e-06,-0.000464017402325823,8.44999748395026e-06,-0.0019192605364573,3.43693911997178e-06,-1.19579935624614e-05,4.93325453465587e-06,6.83682906199579e-06,-0.00353432843622503,8.96981571063549e-06,-6.01350009254986e-06,-0.00213458153822277,-0.00191552647932536,-0.00162102162197097,-0.0016393542944968,-0.00376591430856976,-6.97456917109207e-07,-0.00213458153822277,-0.00346181653978483,-0.00394567887343555,0.0891888808918297,-0.000421351839475115,-0.000587647470069008,4.93325453465587e-06,-0.00353432843622503,9.27721383892077e-06,-0.00394567887343555,-0.00149927184781529,-0.00163935429449769,-0.000135358817008324,-3.48664922098507e-05,-0.00376591430856976,-0.000131835453777818,-1.03816144338964e-05,-0.00353432843622503,-0.00111219315538769,-1.19579935624614e-05,-0.00112994383946141,-0.000464017402325823,-0.00255289551970783,-6.97456917109207e-07,-0.00248870388484512,-0.00162981948660423,-1.8175585076996e-05,-0.000621542213136372,-0.00331216678500379,-0.000830196349341783
"6:76585211:G:T",-0.000421351839475115,8.6029867394366e-05,-0.00039947372148319,-0.000466930610811822,-0.00104980653013698,8.15203697150935e-05,7.26502983425803e-05,-0.00272135170455723,-0.000166019604789902,2.46186063419529e-05,-0.00112638726383274,8.02426158053038e-06,-3.44585613216708e-05,-0.000397879710867244,0.00118094939273616,-6.48822270088445e-05,-0.000302936273721244,0.000170610849580477,8.15203697150935e-05,-0.000622255295605889,-0.000237851751105467,7.76264792730075e-05,-6.48822270088445e-05,0.000150713223203702,-0.000110255498529277,-0.00115586442787574,0.00067616356970035,-0.000257265550501984,8.15203697150935e-05,1.62284268032664e-05,-3.8414332193426e-05,-0.000234945453132518,5.29423203632362e-05,-0.000257265550501984,8.02426158053038e-06,1.62284268032664e-05,0.000728334005484665,-0.00123156636966826,-0.000421351839475115,0.0271592134612009,-0.000677487644566099,-0.000110255498529277,0.000676163569701238,-0.00101242050048267,-0.00123156636966826,-0.000310478430003869,5.29423203632362e-05,-0.00651334689062022,0.000335386437178897,-0.000257265550501984,-0.000302936273721244,-3.8414332193426e-05,0.000676163569701238,-0.000394087043108726,0.000150713223203702,0.00214371648525269,-0.000622255295606777,-0.00159028944573247,8.02426158053038e-06,-5.00137723236094e-05,0.000257838087157403,-0.00317094785105176,-0.00535611133304581,-0.00102690433710695,-0.000525689601805546
"6:76595634:C:A",-0.000587647470069008,-0.00349187991104838,-0.00263265263846524,-0.00517314226572907,-0.00122817025338229,-0.00317487934856153,-0.000132499343061809,-0.00585255061492607,-0.0050107711113605,-4.98375256299255e-05,-0.00494915383660999,-2.71040545918311e-05,-0.0017810668894116,-0.00349450661211748,-0.00144303724226269,0.000100800927053335,-0.00083859850679513,-0.00178887154573726,-0.00317487934856153,-0.00210258496790328,0.000119911641060177,-0.00436007514532388,0.000100800927053335,-0.00138845001692456,7.45923712504037e-05,-0.00158478878693646,0.000530055862351109,0.000359405310697447,-0.00016287217534483,-0.00188300275095798,-0.00996071909942131,0.00013988908757856,-0.00174970001543517,-0.00312249070941473,-2.71040545918311e-05,-0.00188300275095798,0.000586589134881965,-0.00335620574961215,-0.000587647470069008,-0.000677487644566099,0.119674829873478,7.45923712504037e-05,0.000530055862351109,-0.000542036372873866,-0.00335620574961215,0.000134433251166577,-0.00174970001543517,-0.00448724307134718,-0.00197834890188275,-0.00312249070941384,-0.00083859850679513,-0.00417851608070841,0.000530055862351109,-0.00230748612796816,-0.00138845001692456,-0.000778200823936537,-0.00210258496790328,-0.000354439481982993,-2.71040545918311e-05,-0.00452527302795325,-0.00214218109392572,-0.000321718399480808,-0.000414338593116348,-0.00736979124008963,-0.00329392539080153
"6:76598541:C:T",4.93325453465587e-06,1.56391736005901e-05,5.07771333895235e-05,-0.00191785153922996,-0.00277185850365669,1.46565699239432e-05,1.27179012840983e-05,-2.88838463280428e-05,-0.00370262342694883,5.61031513512944e-06,-0.0024376809134905,1.83548645527054e-06,-0.000582023604941639,-7.05498431639029e-05,-0.000367459788322755,-1.11647665104186e-05,-4.9959317270698e-05,3.04050263650879e-05,1.46565699239432e-05,4.92032190004821e-05,-0.00137261189400117,-0.00312340284930102,-1.11647665104186e-05,2.62607718592989e-05,0.000208553968317204,-0.000361078154540451,-0.00215723194473316,-4.45824735271216e-05,1.46565699239432e-05,3.70528725834873e-06,-0.00165406145258729,-0.00140070571924955,-0.00380587493736506,-4.45824735271216e-05,1.83548645527054e-06,3.70528725834873e-06,-0.00225477032433741,-0.00227163062258651,4.93325453465587e-06,-0.000110255498529277,7.45923712504037e-05,0.0529324006176437,-0.00215723194473405,-0.00135519010816942,-0.00227163062258651,-0.00129455087189712,-0.00380587493736506,-0.00118820204730952,-0.0021599333809954,-4.45824735271216e-05,-4.9959317270698e-05,-4.85710285147434e-06,-0.00215723194473405,-6.92494083853745e-05,2.62607718592989e-05,-4.53359915484342e-05,4.92032189995939e-05,-0.00151388639843653,1.83548645527054e-06,-7.6121570797838e-06,4.51762719722026e-05,3.65239225184055e-05,-0.00276413703770784,-1.90309357472884e-05,-0.00216957259491402
"6:76599409:T:C",-0.00353432843622503,-0.00626376561252684,0.000296081741395504,-0.00352526884564242,-0.000531671099602615,-0.000472873921888883,-0.000193805654679302,0.000129030765061877,-0.00559417162969478,-0.000887400041540864,-0.0012525615287684,-0.00255995193278125,-5.97356293874363e-05,-0.0109764595552386,0.000291424957945541,0.000140666789837596,-5.14267881972508e-05,-0.00267484924120343,-0.000472873921888883,0.000166605324408486,-0.00114095790026125,-0.00529681665268145,0.000140666789837596,-0.00113380920241823,-0.00215723194473405,-0.000343291007252944,-0.000878095608995544,-0.00152507260589907,-0.000472873921888883,-0.00516150247746516,-0.0004882736159324,-0.00018225300587682,-0.00177813570305085,-0.0093698242439535,-0.00255995193278125,-0.00516150247746516,0.000842142194761308,-0.000889778200258817,-0.00353432843622503,0.000676163569701238,0.000530055862351109,-0.00215723194473405,0.119071109683201,-0.000340007108845075,-0.00088977820026015,-0.000597279725564448,-0.0017781357030513,-0.00401681823972622,0.000680121143763923,-0.0093698242439535,-0.000320682549704632,-0.000500988587705642,0.00304739105914464,-0.000169127167983341,-0.00113380920241823,0.000309081166667724,0.000166605324408486,-0.00214854431709055,-0.00255995193278302,-0.0045661511603754,-0.000469226720560822,-0.00140451357253468,-0.00103479905739556,-0.00499657404076626,-0.00690886012062641
"6:76600125:G:A",9.27721383892077e-06,4.29191559518927e-05,0.000142901704814236,0.000142074273588477,-0.00284741216893192,4.03776969823966e-05,-0.00192934892305985,-8.25490810045793e-05,-0.000676440781348653,1.42800599549631e-05,-0.00163892237339347,4.66325725501093e-06,-0.00153697191058733,-0.000669703021308976,-0.00127381499658208,-3.12707491136877e-05,-0.00120859788673577,-0.000779443953886627,4.03776969823966e-05,-0.00070373834994264,-0.00318323491612116,-0.000484944994272318,-3.12707491136877e-05,7.31598158907332e-05,-0.00135519010816942,-0.000551495022317994,-0.000340007108844631,-0.000124778596199526,4.03776969823966e-05,9.42230626232998e-06,-1.54592769314732e-05,-0.00312948517332146,-0.000599732336969083,-0.000831158981760893,4.66325725501093e-06,9.42230626232998e-06,-0.000381848499141135,-0.00177975659257346,9.27721383892077e-06,-0.00101242050048267,-0.000542036372873866,-0.00135519010816942,-0.000340007108845075,0.049929321479306,-0.00177975659257346,-0.00334482645872125,-0.000599732336969971,-0.00137072934537485,3.29064278741242e-05,-0.000831158981760893,-0.00120859788673577,-0.00277450578722505,-0.000340007108845075,-0.000909988857705102,7.31598158907332e-05,-0.00012655801514061,-0.00070373834994264,-0.0024246069717746,4.66325725501093e-06,-0.00015516772405455,-0.00199448465490271,0.000102574119217103,-0.000662081476724641,-0.00223779155182591,0.000174143986876985
"6:76603155:A:G",-0.00394567887343555,-0.00290241145079762,-0.000118413481443369,-0.00174788524158132,-0.0020887319259435,-3.19182469841195e-05,-2.71064874182159e-05,5.31937428780438e-05,-0.000357144548070565,-0.00185363806018746,0.000314681907767955,-4.3510528824342e-06,-0.00198200548225191,0.00012436877899713,-0.00084062043872013,2.21277225627148e-05,8.80446865290097e-05,-0.00150607518998669,-3.19182469841195e-05,-0.00310469817201753,-0.00182758981209918,-0.00060455998038389,2.21277225627148e-05,-5.79505975348837e-05,-0.00227163062258651,0.00015360754585636,-0.000889778200259261,-0.00132516800519067,-3.19182469841195e-05,-8.82106938249194e-06,7.55087799664267e-06,-0.00185848674033817,-0.00410164007339908,8.20227611972868e-05,-4.3510528824342e-06,-8.82106938249194e-06,-0.00102854342887104,0.00231879091334708,-0.00394567887343555,-0.00123156636966826,-0.00335620574961215,-0.00227163062258651,-0.00088977820026015,-0.00177975659257346,0.0658212120094102,-0.00171393482339166,-0.00410164007339997,-0.00201556117275814,-0.00153727434468021,8.20227611972868e-05,8.80446865290097e-05,7.55087799664267e-06,-0.000889778200258817,0.000121775584611683,-5.79505975348837e-05,8.35961618523839e-05,-0.00310469817201753,-0.00123029911005812,-4.3510528824342e-06,1.39682974218402e-05,-0.00292023646510309,-8.1826347418712e-05,-5.83315088125147e-05,-0.00026627420184866,-0.00338605876241438
"6:76606200:T:C",-0.00149927184781529,-0.00206256314318765,0.00014865370456274,-0.00153198673652444,-0.00296093535982145,4.17068003466525e-05,3.65455298876327e-05,-8.48539230275946e-05,-0.00145833538641327,1.46666318618927e-05,-0.0034643099907461,-0.00302726335614611,-0.00147518697514482,-0.00203187329028687,-0.00158127018851939,-3.22070921523476e-05,-0.00349680572730904,8.7041337585525e-05,4.17068003466525e-05,4.96331876904677e-05,-0.000898583780769791,-0.00772456756927475,-3.22070921523476e-05,7.57506125568241e-05,-0.00129455087189712,6.83809612072039e-05,-0.0030035300929705,-0.000772338879851731,4.17068003466525e-05,-0.00173956913021822,-1.60234700059547e-05,-0.00152637382264853,-0.00624943088887164,-0.00166430919123162,-0.00302726335614611,-0.00173956913021822,-0.000475028812202627,-0.00171393482339166,-0.00149927184781529,-0.000310478430003869,0.000134433251166577,-0.00129455087189712,-0.000597279725564448,-0.00334482645872125,-0.00171393482339166,0.0950301930722239,-0.00624943088887164,-0.0038820477461714,-0.00207720120206556,-0.00166430919123162,-0.00349680572730815,-1.60234700059547e-05,-0.000597279725564448,-0.000197234782113753,7.57506125568241e-05,-0.000129703869078845,4.96331876904677e-05,0.000331461397556687,-0.00302726335614611,-2.31068169043169e-05,-0.000247705607281823,0.000106438486469962,-0.00470632800160464,-0.000212533347166755,-0.00446224255620287
"6:76607280:A:G",-0.00163935429449769,-0.00187900260158358,-7.66525648652205e-05,-0.00399755375011868,-0.00275079341270246,-0.00183423377321645,-1.2382096954866e-05,-4.92706180841296e-05,-0.000156007338052877,-6.95683401126246e-05,-0.00440920869927197,-0.00235763969425395,-0.00456726129559648,-0.00159748139661886,0.00047393739960766,7.66629130222185e-06,2.76387302626802e-05,-0.00178351748108518,-0.00183423377321645,-0.00129033172162485,-0.00669384914751969,0.000344551447980734,7.66629130222185e-06,-0.00308161927347861,-0.00380587493736506,7.23899331518396e-05,-0.0017781357030513,-0.00386352394088618,-0.0026560833830116,-0.000456340814564804,-0.006123630917239,-0.00676987392089679,0.00189825146037492,-0.00212375350876659,-0.00235763969425395,-0.000456340814564804,-0.0025524825768426,-0.00410164007339997,-0.00163935429449769,5.29423203632362e-05,-0.00174970001543517,-0.00380587493736506,-0.0017781357030513,-0.000599732336969971,-0.00410164007339997,-0.00624943088887164,0.139308424075955,-0.00789352793933196,-0.00108795274833895,-0.0021237535087657,2.76387302626802e-05,-0.00234093328177742,-0.00177813570305085,-0.00049190163556645,-0.00308161927347861,-0.00113553293641555,-0.00129033172162396,-0.00499168181959408,-0.00235763969425395,1.59771190233471e-06,-0.000521920062934278,-0.00726526975203878,-0.00230258053379195,-0.00244620043299948,-0.00406457354121503
"6:76610319:C:A",-0.000135358817008324,-0.00151941610642492,-0.00427262840496567,-0.00493626748214737,-0.00425009854436365,-0.00212574634647655,-0.0054077324143611,-0.00403063117555824,-0.00475415201428797,-0.00211699924690034,-0.00196923131279014,3.1434549940812e-06,-0.00171508598103554,-0.000724177155073669,-0.0123373413635459,-1.82016444583155e-07,-0.00803786085041835,-0.0056182508423861,-0.00212574634647655,-0.00381002638311978,-0.00355446064313369,-0.00591381798398194,-1.82016444583155e-07,1.59271316313436e-06,-0.00118820204730952,2.18804744811507e-05,-0.00452690723305338,-0.00159900177732197,-8.37984644093126e-05,-0.000712803149666819,-0.00471933466238106,-0.00699798626231285,-0.00789352793933196,-0.000209951520011131,3.1434549940812e-06,-0.000712803149666819,-0.00454245396615871,-0.00201556117275814,-0.000135358817008324,-0.00651334689062022,-0.00448724307134718,-0.00118820204730952,-0.00401681823972622,-0.00137072934537485,-0.00201556117275814,-0.0038820477461714,-0.00789352793933196,0.188998285400724,-0.00277401170469194,-0.000209951520011131,-0.00815999810833201,-7.27441515371297e-05,-0.0040168182397271,-0.000676737925367377,1.59271316313436e-06,-0.000825975180432259,-0.00381002638311978,-0.0052648833475013,3.14345499496937e-06,-0.00245212775556958,-0.00311556437707949,-0.00184131375552443,-0.00238987842292815,-0.00292452137131427,-0.00443766936200429
"6:76610595:A:G",-3.48664922098507e-05,-6.395538435644e-05,-0.00209098285296072,-0.000259418034563197,4.12729529131184e-05,-5.91806681322637e-05,-4.9820765365638e-05,9.52863567524886e-05,-0.00196284733299557,-0.00164859242304516,-0.0016484347689385,-0.00198140385692192,-0.00243012622099581,0.000229222056685963,-0.00165061056007154,4.0380227226855e-05,-0.00212745244037382,-0.000127473536730704,-5.91806681322637e-05,-0.00174158362810495,-0.00199393609789933,-0.000895739756939129,4.0380227226855e-05,-0.00108164415069201,-0.0021599333809954,-0.00364768041328833,0.000680121143765255,0.000149953892176313,-0.00134855564330127,-1.7315175770527e-05,1.15066268353559e-05,-0.00194516648317045,-0.00108795274833895,0.000149953892176313,-0.00198140385692192,-1.7315175770527e-05,0.000719733605726081,-0.00153727434468021,-3.48664922098507e-05,0.000335386437178897,-0.00197834890188275,-0.0021599333809954,0.000680121143763923,3.29064278741242e-05,-0.00153727434468021,-0.00207720120206556,-0.00108795274833895,-0.00277401170469194,0.0606163731047222,0.000149953892176313,-0.00212745244037382,1.15066268353559e-05,0.000680121143763923,0.000223754556392564,-0.00108164415069201,0.000153177893476908,-0.00174158362810495,-0.00124576928166586,-0.00198140385692192,-0.00203067593689976,-0.00136284435008971,-0.000149283836702097,-0.00489291594951347,-0.000525298249411499,-0.000602804890762698
"6:76612173:G:C",-0.00376591430856976,3.88649278972863e-05,0.000132143254011119,0.000219164396326299,-0.00404490320693895,3.65225144252079e-05,3.19134092405804e-05,-7.216129527432e-05,-0.00485020836714511,-0.00126564741595292,5.34763932051874e-05,4.24279011923545e-06,-1.13536692758487e-05,0.000120806411519681,-0.0044609198920913,-2.77595479065695e-05,-0.00012318956072388,7.6759412099392e-05,3.65225144252079e-05,-0.00328314436284405,-0.00182617780064742,-0.00198759774702939,-2.77595479065695e-05,6.65760424416462e-05,-4.45824735271216e-05,-0.00021894276762513,-0.00936982424395261,-0.000108568085177119,3.65225144252079e-05,8.57867336545581e-06,-1.34850293571631e-05,-0.00187645290409222,-0.0021237535087657,0.0019018056173028,4.24279011923545e-06,8.57867336545581e-06,-0.00946091210544608,8.20227611972868e-05,-0.00376591430856976,-0.000257265550501984,-0.00312249070941384,-4.45824735271216e-05,-0.0093698242439535,-0.000831158981760893,8.20227611972868e-05,-0.00166430919123162,-0.0021237535087657,-0.000209951520011131,0.000149953892176313,0.0937623708782764,-0.00012318956072388,-1.34850293571631e-05,-0.0093698242439535,-0.000165822178617603,6.65760424416462e-05,-0.000110139902356643,-0.00328314436284405,-0.00196802907457094,4.24279011923545e-06,-0.00100780240041498,-0.00153575450094934,9.39211698316456e-05,-0.00561332850775997,-0.00221193878828441,-0.00126286375171158
"6:76613819:T:G",-0.000131835453777818,4.22003510465174e-05,-0.00254331227104476,-0.000164174110482307,-4.11757215221797e-05,3.96997017375611e-05,3.477223453352e-05,-8.13769403036346e-05,-0.00229055084877494,-0.00162680099423707,5.77440739748525e-05,4.59946039477188e-06,-1.28483019166126e-05,-0.000193839592918188,-9.03081585734711e-06,-3.07941216055596e-05,-0.00144486742473493,8.25354230773456e-05,3.96997017375611e-05,-0.000749371869218862,-0.00333547885437824,3.44260763922577e-05,-3.07941216055596e-05,-0.00200502312958761,-4.9959317270698e-05,9.39976023364153e-05,-5.14267881963626e-05,-0.00088650777121746,-0.00235098093717934,9.29231120938567e-06,-1.51739856137922e-05,-0.00328173893225703,2.76387302626802e-05,-0.00012318956072388,4.59946039477188e-06,9.29231120938567e-06,-0.000365368739147609,8.80446865290097e-05,-0.000131835453777818,-0.000302936273721244,-0.00083859850679513,-4.9959317270698e-05,-0.000320682549704632,-0.00120859788673577,8.80446865290097e-05,-0.00349680572730815,2.76387302626802e-05,-0.00815999810833201,-0.00212745244037382,-0.00012318956072388,0.0522657764676717,-7.33986292242861e-05,-0.000320682549704632,-0.00080861674873578,-0.00200502312958761,-0.000124956733848158,-0.000749371869218862,-8.74554415215556e-05,4.59946039477188e-06,-0.0013717352911895,-0.00417088040309821,0.000100604764855738,-0.00455427405712738,-0.00046725388742086,0.000254118934441827
"6:76614878:G:A",-1.03816144338964e-05,3.92553746397795e-06,-0.0031135208068358,-0.0022368496229932,-3.75907814476051e-06,-0.00270610321539078,3.21421246596287e-06,-8.30074343571852e-06,-0.00100664376332293,1.50688048705661e-06,5.34252991091222e-06,5.00475974440917e-07,-9.67712718846769e-07,-2.27475968621604e-05,-0.00463161055625605,-3.06732684940414e-06,-7.33986292242861e-05,7.12347407549885e-06,-0.00270610321539078,-0.00433779703219361,-1.15466894010652e-05,-4.50461860257434e-06,-3.06732684940414e-06,6.256899316881e-06,-4.85710285147434e-06,-3.08836371214483e-05,-0.000500988587703866,-0.000673621336847674,3.68850979270974e-06,1.00286335324995e-06,-1.2330628242907e-06,-1.12623778116827e-05,-0.00234093328177742,-1.34850293571631e-05,5.00475974440917e-07,1.00286335324995e-06,-0.00410019295681963,7.55087799664267e-06,-1.03816144338964e-05,-3.8414332193426e-05,-0.00417851608070841,-4.85710285147434e-06,-0.000500988587705642,-0.00277450578722505,7.55087799664267e-06,-1.60234700059547e-05,-0.00234093328177742,-7.27441515371297e-05,1.15066268353559e-05,-1.34850293571631e-05,-7.33986292242861e-05,0.0501873520744187,-0.000500988587704754,-0.00245091900641992,6.256899316881e-06,-1.37546089939988e-05,-0.00433779703219361,1.2603342336881e-05,5.00475974440917e-07,-2.02434457818867e-06,9.77161911475122e-06,-0.00118579980575007,-0.00303126489872252,-0.000127010851358911,-4.55233913969622e-05
"6:76614904:A:G",-0.00353432843622503,-0.00626376561252684,0.000296081741395504,-0.00352526884564242,-0.000531671099602615,-0.000472873921888883,-0.000193805654679302,0.000129030765061877,-0.00559417162969478,-0.000887400041540864,-0.0012525615287684,-0.00255995193278125,-5.97356293874363e-05,-0.0109764595552386,0.000291424957945541,0.000140666789837596,-5.14267881972508e-05,-0.00267484924120343,-0.000472873921888883,0.000166605324408486,-0.00114095790026125,-0.00529681665268145,0.000140666789837596,-0.00113380920241823,-0.00215723194473405,-0.000343291007252944,-0.000878095608995544,-0.00152507260589907,-0.000472873921888883,-0.00516150247746516,-0.0004882736159324,-0.00018225300587682,-0.00177813570305085,-0.0093698242439535,-0.00255995193278125,-0.00516150247746516,0.000842142194761308,-0.000889778200258817,-0.00353432843622503,0.000676163569701238,0.000530055862351109,-0.00215723194473405,0.00304739105914464,-0.000340007108845075,-0.000889778200258817,-0.000597279725564448,-0.00177813570305085,-0.0040168182397271,0.000680121143763923,-0.0093698242439535,-0.000320682549704632,-0.000500988587704754,0.119071109683199,-0.000169127167983341,-0.00113380920241823,0.000309081166667724,0.000166605324408486,-0.00214854431709055,-0.00255995193278302,-0.0045661511603754,-0.000469226720560822,-0.00140451357253468,-0.00103479905739556,-0.00499657404076626,-0.00690886012062641
"6:76619987:T:C",-0.00111219315538769,5.77895125122296e-05,-0.00250314328693957,-0.0112531776883484,-5.82126368700031e-05,-0.00528011949151797,4.79646493136698e-05,-0.000111478187556635,-0.00209240452480941,1.82857924002633e-05,7.84483230020783e-05,5.96196455937559e-06,-1.92533018186225e-05,-0.000256935734156194,-0.0012132385311876,-4.21596593813689e-05,-0.00080861674873578,0.000114297724041812,-0.00528011949151797,-0.00227189561707153,-0.000150221277531948,-0.000621373114380042,-4.21596593813689e-05,9.98333390933581e-05,-6.92494083853745e-05,-0.000337447628321996,-0.000169127167982452,-0.000424579727843266,5.44786163096944e-05,-0.00135079780736547,-2.22300795327257e-05,-0.000147887012361458,-0.00049190163556645,-0.000165822178617603,5.96196455937559e-06,-0.00135079780736547,-6.96993258211265e-05,0.000121775584611683,-0.00111219315538769,-0.000394087043108726,-0.00230748612796816,-6.92494083853745e-05,-0.000169127167983341,-0.000909988857705102,0.000121775584611683,-0.000197234782113753,-0.00049190163556645,-0.000676737925367377,0.000223754556392564,-0.000165822178617603,-0.00080861674873578,-0.00245091900641992,-0.000169127167983341,0.0597931868452779,9.98333390933581e-05,-0.000167950650797444,-0.00227189561707153,0.000456664116446071,5.96196455937559e-06,-3.09615452902534e-05,0.000172558807900458,0.000141293607761384,-0.00141613332730639,-0.00714905669190102,-0.00294509536898158
"6:76620527:A:G",-1.19579935624614e-05,-0.00115240143735118,-9.16247650355473e-05,-0.000165827603885838,1.98342797421702e-05,-2.50790646072474e-05,-2.13733578782183e-05,4.3038100094428e-05,-0.000326183700636307,-1.04280976964688e-05,-3.88098238817136e-05,-3.39048759556704e-06,4.53995832394583e-06,0.00010197959699898,-0.00106678094761303,1.7691803494202e-05,-0.00200502312958761,-5.36475429102623e-05,-2.50790646072474e-05,-0.00140338254242689,5.71918669658444e-05,-0.00293356292772273,1.7691803494202e-05,0.000977860265847674,2.62607718592989e-05,-0.00212117958840174,-0.00113380920241735,6.65760424416462e-05,-0.00108684031315498,-6.86545936190441e-06,-0.00311109589950931,5.57817712127928e-05,-0.00308161927347861,6.65760424416462e-05,-3.39048759556704e-06,-6.86545936190441e-06,-0.00110148415897449,-5.79505975348837e-05,-1.19579935624614e-05,0.000150713223203702,-0.00138845001692456,2.62607718592989e-05,-0.00113380920241823,7.31598158907332e-05,-5.79505975348837e-05,7.57506125568241e-05,-0.00308161927347861,1.59271316313436e-06,-0.00108164415069201,6.65760424416462e-05,-0.00200502312958761,6.256899316881e-06,-0.00113380920241823,9.98333390933581e-05,0.0551559098507024,6.78509587022091e-05,-0.00140338254242689,-0.000223401015404079,-3.39048759556704e-06,1.12795477162919e-05,-8.18397587085684e-05,-0.000424648866538035,-0.00714204748643787,-0.0163423919999994,-0.000629187427047206
"6:76624538:G:A",-0.00112994383946141,3.95638309891311e-05,0.000134947542904662,0.000224193105933246,-3.72713576002326e-05,3.71812569728291e-05,3.24939056257634e-05,0.000193197600162343,-0.000261375353391102,1.32097817280297e-05,5.4431856597148e-05,4.30683924879105e-06,-1.15933172208926e-05,-0.000170516786623942,-0.000128479327169195,-2.82244393945419e-05,-0.000124956733848158,7.82297328809634e-05,3.71812569728291e-05,-0.000784428974903939,-9.85198009280097e-05,-0.00122711707889422,-2.82244393945419e-05,6.78509587022091e-05,-4.53359915484342e-05,-0.00022144127638235,0.000309081166667724,-0.000110139902356643,3.71812569728291e-05,8.70903365690623e-06,-1.37546089939988e-05,-9.67814133785438e-05,-0.00113553293641555,-0.000110139902356643,4.30683924879105e-06,8.70903365690623e-06,0.000340202492497887,8.35961618523839e-05,-0.00112994383946141,0.00214371648525269,-0.000778200823936537,-4.53359915484342e-05,0.000309081166667724,-0.00012655801514061,8.35961618523839e-05,-0.000129703869078845,-0.00113553293641555,-0.000825975180432259,0.000153177893476908,-0.000110139902356643,-0.000124956733848158,-1.37546089939988e-05,0.000309081166667724,-0.000167950650797444,6.78509587022091e-05,0.00991458349911234,-0.000784428974903939,0.000312973847032438,4.30683924879105e-06,-2.00940815213713e-05,0.000118199565512178,-0.00308912884261403,8.56532370914209e-05,-0.00143596571882743,0.000470653176250835
"6:76625188:A:G",-0.000464017402325823,-0.000135931363538511,-0.00266615077725429,-0.00557133137166499,-0.000294823816791023,-0.00305864603670258,-0.000102285787490608,-0.0056587410074016,-0.0060349759626428,-3.01849767092577e-05,-0.00464050497853652,-1.95832450726741e-05,-0.0019403593298799,-0.00370178031293467,-0.00182338787382319,7.83821414156449e-05,-0.000749371869218862,-0.00162777252225776,-0.00305864603670258,0.00165103463478022,5.94926502328619e-05,-0.0026899570549368,7.83821414156449e-05,-0.00140338254242689,4.92032189995939e-05,-0.00139888093951601,0.000166605324408042,0.000278315433710929,-0.000124501569938928,-3.99173854601642e-05,-0.0102882693935324,8.29128488577524e-05,-0.00129033172162396,-0.00328314436284405,-1.95832450726741e-05,-3.99173854601642e-05,0.000166756905617405,-0.00310469817201753,-0.000464017402325823,-0.000622255295606777,-0.00210258496790328,4.92032189995939e-05,0.000166605324408486,-0.00070373834994264,-0.00310469817201753,4.96331876904677e-05,-0.00129033172162396,-0.00381002638311978,-0.00174158362810495,-0.00328314436284405,-0.000749371869218862,-0.00433779703219361,0.000166605324408486,-0.00227189561707153,-0.00140338254242689,-0.000784428974903939,0.105387428884931,-0.000501995267075728,-1.95832450726741e-05,-0.00437657777340483,-0.00148069127148887,-0.000118195623345585,-0.000189403305520752,-0.00681286778654444,-0.0030009122043424
"6:76626432:C:T",-0.00255289551970783,-0.000137646397591062,-0.000449141953623666,-0.00457002532963457,-0.00132030302692243,-0.000126386803005474,-0.000104303674349104,-0.00258010716681945,-0.000217080725133378,-0.00246002354175001,-0.00129667532657152,-2.04332531188456e-05,-0.00483919320695136,-0.00157025787630172,-0.00156507588522459,8.25858445434591e-05,-8.74554415215556e-05,-0.000272320306029528,-0.000126386803005474,-0.000501995267075728,0.000244099119083963,-0.00783272612158648,8.25858445434591e-05,-0.000223401015404079,-0.00151388639843653,-0.00100143911909711,-0.00214854431708966,0.000304755706778792,-0.000126386803005474,-4.14009829166062e-05,1.2603342336881e-05,0.00023495933491624,-0.00499168181959408,-0.00196802907457094,-2.04332531188456e-05,-4.14009829166062e-05,-0.00208418969137103,-0.00123029911005812,-0.00255289551970783,-0.00159028944573247,-0.000354439481982993,-0.00151388639843653,-0.00214854431709055,-0.0024246069717746,-0.00123029911005812,0.000331461397556687,-0.00499168181959408,-0.0052648833475013,-0.00124576928166586,-0.00196802907457094,-8.74554415215556e-05,1.2603342336881e-05,-0.00214854431709055,0.000456664116446071,-0.000223401015404079,0.000312973847032438,-0.000501995267075728,0.0855646089614894,-2.04332531188456e-05,-0.00244450425964082,-0.00197052174545309,-0.000309349425040573,-0.000935819088773826,-0.0031327869346427,-0.00255823914768438
"6:76627639:T:A",-6.97456917109207e-07,-1.94521041141371e-06,-7.2771241379499e-06,-1.39573570514528e-05,-0.00232588037756809,-1.81071460403359e-06,-1.5485391680059e-06,2.89990731960899e-06,-5.94227651706802e-06,-6.97404381355682e-07,-2.80335034918977e-06,9.84416599614235e-06,3.90129472727097e-07,6.05149823851292e-06,-6.25845220385557e-05,1.22150336778759e-06,4.59946039477188e-06,-4.0195567185819e-06,-1.81071460403359e-06,-1.95832450726741e-05,-0.00290377692869992,-0.00225227725603006,1.22150336778759e-06,-3.39048759556704e-06,1.83548645527054e-06,7.19419138128785e-06,-0.00255995193278125,4.24279011923545e-06,-1.81071460403359e-06,-4.56918383129334e-07,5.00475974440917e-07,-0.00285182698772601,-0.00235763969425395,4.24279011923545e-06,9.84416599614235e-06,-4.56918383129334e-07,-0.00251471206188913,-4.3510528824342e-06,-6.97456917109207e-07,8.02426158053038e-06,-2.71040545918311e-05,1.83548645527054e-06,-0.00255995193278302,4.66325725501093e-06,-4.3510528824342e-06,-0.00302726335614611,-0.00235763969425395,3.14345499496937e-06,-0.00198140385692192,4.24279011923545e-06,4.59946039477188e-06,5.00475974440917e-07,-0.00255995193278302,5.96196455937559e-06,-3.39048759556704e-06,4.30683924879105e-06,-1.95832450726741e-05,-2.04332531188456e-05,0.0331594543698426,8.20164051340555e-07,-6.36029873213317e-06,-4.91064531615848e-06,-7.68195275657746e-06,-0.00273331756825357,-3.63910017862068e-05
"6:76628017:T:C",-0.00248870388484512,6.78625804262367e-06,2.14274506831202e-05,-0.00215576529596806,-5.97250475564692e-06,6.35576771124136e-06,5.50463292636749e-06,-1.26245267075831e-05,-0.000281768571006147,-0.000423255983887039,9.43990835367003e-06,8.20164051340555e-07,-1.60295322437776e-06,-0.000788342003954057,-0.000576054267797055,-4.87614766786493e-06,-0.0013717352911895,1.30590542983811e-05,6.35576771124136e-06,-0.00437657777340483,-1.71471198129325e-05,4.12885408014319e-05,-4.87614766786493e-06,1.12795477162919e-05,-7.6121570797838e-06,-0.00336957506002022,-0.00456615116037451,-1.97378469808385e-05,6.35576771124136e-06,1.65363661253082e-06,-2.02434457818867e-06,-1.67625725877585e-05,1.59771190233471e-06,-0.00100780240041498,8.20164051340555e-07,1.65363661253082e-06,-0.00450735283966441,1.39682974218402e-05,-0.00248870388484512,-5.00137723236094e-05,-0.00452527302795325,-7.6121570797838e-06,-0.0045661511603754,-0.00015516772405455,1.39682974218402e-05,-2.31068169043169e-05,1.59771190233471e-06,-0.00245212775556958,-0.00203067593689976,-0.00100780240041498,-0.0013717352911895,-2.02434457818867e-06,-0.0045661511603754,-3.09615452902534e-05,1.12795477162919e-05,-2.00940815213713e-05,-0.00437657777340483,-0.00244450425964082,8.20164051340555e-07,0.0657062222357601,-0.00100672332027862,1.55588045096522e-05,-0.00245315647507471,-0.00352898545392843,-0.00278394387267777
"6:76628025:G:T",-0.00162981948660423,-0.000136481117523957,-0.000166499673745157,-0.000352664911791756,-0.00180924478731459,-4.53032875062931e-05,-3.8308642103857e-05,7.43367810702722e-05,-0.00226587830021518,-0.00374060454504566,-0.00571242200777178,-6.36029873213317e-06,6.54346471229417e-06,-0.00124353365312846,-0.00112807974619544,3.1187318391801e-05,-0.00417088040309821,-9.76046535772213e-05,-4.53032875062931e-05,-0.00148069127148887,-0.000195343540840831,-0.00264466161836641,3.1187318391801e-05,-8.18397587085684e-05,4.51762719722026e-05,-0.00494080794364482,-0.000469226720559934,-0.00153575450094934,-4.53032875062931e-05,-0.0016978484234782,-4.91701241553955e-05,-0.000167000430660202,-0.000521920062934278,-0.00153575450094934,-6.36029873213317e-06,-0.0016978484234782,-0.000421788126553135,-0.00292023646510309,-0.00162981948660423,0.000257838087157403,-0.00214218109392572,4.51762719722026e-05,-0.000469226720560822,-0.00199448465490271,-0.00292023646510309,-0.000247705607281823,-0.000521920062934278,-0.00311556437707949,-0.00136284435008971,-0.00153575450094934,-0.00417088040309821,9.77161911475122e-06,-0.000469226720560822,0.000172558807900458,-8.18397587085684e-05,0.000118199565512178,-0.00148069127148887,-0.00197052174545309,-6.36029873213317e-06,-0.00100672332027862,0.0713503696726598,-0.000670524131810346,-0.0014195714542069,4.28813405406459e-06,-0.00193001258917125
"6:76628176:A:C",-1.8175585076996e-05,-0.00207530364203734,-0.000128309736631138,-0.000232731267726827,-0.00121173580231204,-3.54461511440363e-05,-3.01106211608726e-05,-0.00380866532789259,-0.000144545730484502,-1.50933973657175e-05,-5.51837236795194e-05,-4.91064531615848e-06,5.75912964606573e-06,0.000144527677286455,-0.00197104783620183,2.48945964180791e-05,0.000100604764855738,-7.56777232986394e-05,-3.54461511440363e-05,-0.000118195623345585,8.00126708995208e-05,-0.00232200360251245,2.48945964180791e-05,-0.000424648866538035,3.65239225184055e-05,0.00017985906959872,-0.00140451357253468,-0.00262676703985765,-3.54461511440363e-05,-0.00109166877167421,8.25441374896485e-06,7.79251062033026e-05,-0.00726526975203878,9.39211698316456e-05,-4.91064531615848e-06,-0.00109166877167421,-0.00480885538525389,-8.1826347418712e-05,-1.8175585076996e-05,-0.00317094785105176,-0.000321718399480808,3.65239225184055e-05,-0.00140451357253468,0.000102574119217103,-8.1826347418712e-05,0.000106438486469962,-0.00726526975203878,-0.00184131375552443,-0.000149283836702097,9.39211698316456e-05,0.000100604764855738,-0.00118579980575007,-0.00140451357253468,0.000141293607761384,-0.000424648866538035,-0.00308912884261403,-0.000118195623345585,-0.000309349425040573,-4.91064531615848e-06,1.55588045096522e-05,-0.000670524131810346,0.0602394629777629,-0.000801822321246703,-0.00558547515903918,-0.00264797960650753
"6:76628564:C:T",-0.000621542213136372,-0.00186212327262503,-0.00212822866758966,-0.00566462479204155,-0.000286246011670599,-0.00731421143844369,-0.00557917494325455,-0.00096491786399211,-0.00579376651236219,-0.00220277485246445,-0.00214546337375188,-7.68195275657746e-06,-0.000944506885101504,-0.00560763263605768,-0.00310227169073674,6.75322927818911e-05,-0.00330259920154941,-0.00175140688830133,-0.00731421143844369,-0.000189403305520752,-0.00400998664965702,-0.0034578593353598,6.75322927818911e-05,-0.00714204748643787,-0.00276413703770784,-0.00224438984524333,-0.00103479905739601,-0.00228375535997394,-0.00625054431695471,9.96671378850067e-06,-0.00107128593408135,-0.00606849728902326,-0.00230258053379195,-0.00561332850775997,-7.68195275657746e-06,9.96671378850067e-06,-0.00129711384809506,-5.83315088125147e-05,-0.000621542213136372,-0.00535611133304581,-0.000414338593116348,-0.00276413703770784,-0.00103479905739556,-0.000662081476724641,-5.83315088125147e-05,-0.00470632800160464,-0.00230258053379195,-0.00238987842292815,-0.00489291594951347,-0.00561332850775997,-0.00455427405712738,-0.00303126489872252,-0.00103479905739556,-0.00141613332730639,-0.00714204748643787,8.56532370914209e-05,-0.000189403305520752,-0.000935819088773826,-7.68195275657746e-06,-0.00245315647507471,-0.0014195714542069,-0.000801822321246703,0.17039029935123,-0.00583677066974264,-0.008602707268762
"6:76629012:A:G",-0.00331216678500379,-0.0012589156632874,0.000483637435253037,0.000130895383287477,-0.00136520475042357,-0.00231342726238548,-0.00496582146019975,-0.00257332495785079,-0.0057922930347436,-0.00169821304682127,-0.000173079973317058,-0.00273331756825357,-0.00026823926233277,-0.00276057882288594,-0.00211838291608135,-0.000116420098067671,-0.00046725388742086,-0.00234344547491894,-0.00231342726238548,-0.00681286778654444,-0.000320406739999335,-0.00357233352515163,-0.000116420098067671,-0.0163423919999994,-1.90309357472884e-05,-0.000870878464819924,-0.00499657404076626,-0.00495409157048066,-0.0146202882223259,-0.000627651902232351,-0.00548682374831877,-0.000378854358067393,-0.00244620043299948,-0.00221193878828441,-0.00273331756825357,-0.000627651902232351,-0.00518010965164617,-0.00026627420184866,-0.00331216678500379,-0.00102690433710695,-0.00736979124008963,-1.90309357472884e-05,-0.00499657404076626,-0.00223779155182591,-0.00026627420184866,-0.000212533347166755,-0.00244620043299948,-0.00292452137131427,-0.000525298249411499,-0.00221193878828441,-0.00046725388742086,-0.000127010851358911,-0.00499657404076626,-0.00714905669190102,-0.0163423919999994,-0.00143596571882743,-0.00681286778654444,-0.0031327869346427,-0.00273331756825357,-0.00352898545392843,4.28813405406459e-06,-0.00558547515903918,-0.00583677066974264,0.193761353307583,0.000474925947976601
"6:76629776:A:G",-0.000830196349341783,-0.00223872419424964,2.46942409418693e-05,-0.00237381516552748,2.05400099275721e-05,-0.00358635764344228,-0.000165590216401057,0.000129221139579805,-0.00248442884715105,-0.00628632178624056,-0.00726069269776808,-3.63910017862068e-05,-0.00114882488399548,-0.00243033636029999,-0.00833033662812577,0.000126268098341598,0.000254118934441827,-0.00272369619855883,-0.00358635764344228,-0.0030009122043424,-0.00241110941065426,-0.00706050153446069,0.000126268098341598,-0.000629187427047206,-0.00216957259491402,-0.00272802235304681,-0.00515469051021045,-0.00543258002728031,-0.00358635764344228,-0.00159403880687048,-0.000263402900127829,-0.0048266089053266,-0.00406457354121503,-0.00126286375171158,-3.63910017862068e-05,-0.00159403880687048,-0.00685535220721212,-0.00338605876241438,-0.000830196349341783,-0.000525689601805546,-0.00329392539080153,-0.00216957259491402,-0.00690886012062641,0.000174143986876985,-0.00338605876241438,-0.00446224255620287,-0.00406457354121503,-0.00443766936200429,-0.000602804890762698,-0.00126286375171158,0.000254118934441827,-4.55233913969622e-05,-0.00690886012062641,-0.00294509536898158,-0.000629187427047206,0.000470653176250835,-0.0030009122043424,-0.00255823914768438,-3.63910017862068e-05,-0.00278394387267777,-0.00193001258917125,-0.00264797960650753,-0.008602707268762,0.000474925947976601,0.161516688358927
