"","11:76839129:C:T","11:76840156:A:G","11:76840798:A:G","11:76841038:C:T","11:76842930:G:A","11:76843775:C:T","11:76843815:G:C","11:76844666:T:A","11:76845579:T:C","11:76845897:C:A","11:76846454:G:T","11:76849800:C:T","11:76850131:C:A","11:76850499:G:A","11:76855596:A:C","11:76860347:C:T","11:76864675:T:C","11:76864873:G:A","11:76865955:G:T","11:76866587:G:A","11:76866955:G:A","11:76867135:C:T","11:76870147:C:T","11:76873770:C:T","11:76875173:G:A","11:76877650:G:A","11:76878907:G:C","11:76881718:C:T","11:76882308:T:C","11:76884503:T:A","11:76884885:G:C","11:76885079:C:G","11:76885164:A:G","11:76885611:C:T","11:76892830:T:G","11:76892891:C:T","11:76893341:G:A","11:76893753:C:T","11:76894954:C:T","11:76894973:C:A","11:76895440:C:T","11:76896526:G:A","11:76898686:G:A","11:76902682:G:A","11:76902853:A:G","11:76904713:T:A","11:76906326:G:A","11:76909397:C:T","11:76911747:T:A","11:76916645:G:A","11:76918317:C:T","11:76921333:A:G","11:76922868:C:T","11:76924766:G:A","11:76925641:C:T","11:76926245:C:T","11:76926301:C:T"
"11:76839129:C:T",0.0854248419302381,-0.000182735585040561,-0.00248449100909731,6.38966935895269e-06,-0.00245787544060327,-0.00162406654661051,-0.00222483405323537,-0.00215657612856557,-3.73724940940789e-05,-8.29459822604406e-07,-1.05429265992996e-05,-7.48133847610077e-05,-0.00117192676225564,-0.000456453686406455,-0.00139451735898977,-0.0023716183800877,-0.00226395499323173,-0.000880415685196922,-4.67218104391875e-05,-0.00599680778145917,-7.48133847610077e-05,-0.00395956544495402,-0.00139347360317377,1.36133341470668e-05,-1.47419829881201e-05,-0.00232640400163575,2.7289387064755e-05,-0.0035753806640173,-0.00106491737897052,-0.00157418484070959,-0.00263435024839964,-0.000624417849253156,-0.0023258008552185,-0.00153654379203783,-0.00176602173863127,-5.37013242265516e-05,-0.00108142826587798,-0.00132482305579096,-0.00354794247899015,1.58675966250854e-05,-0.000767676331752121,-0.00232385436579641,-1.67862223676707e-06,-1.58537934442649e-05,-1.67862223765525e-06,-0.00263435024839964,-0.00170177839808661,-0.000969286122462165,-2.62470364464917e-05,-0.000455542546189847,-0.00316810386515076,-0.00256259680750048,-0.00858797837146952,-0.0026378754938392,-6.70280762289366e-05,-0.00371645655875774,-0.00113495226130311
"11:76840156:A:G",-0.000182735585040561,0.193208936325294,-0.00167417724733498,-0.000301143379200397,-0.00284427787742558,-0.0019048433951081,-0.00325725049602799,-0.000235769354154591,-0.000446201906784793,2.57547549864512e-06,0.000188942412962412,-0.00241779287930477,-0.00178629819676335,-0.0028692293643009,-0.00687355982356763,-0.00404505084894069,-0.00323568324567258,-0.000347652096170492,-0.00472119839645035,-0.0047026698371293,-0.00241779287930477,-0.00143876001511867,-0.000499733425066928,-0.00177314011452268,-0.0088346391541263,-0.00240944022504053,-0.000125923647123827,-0.00640334164760237,-0.000437281955848245,-0.00564337244552648,-0.000136574040811244,-0.00414902521989857,-0.00362891044439362,-0.00842222487756583,-0.0130494823314455,-0.000876084694970469,-0.00638091925473816,-0.000523874810449243,-0.00429109509568182,-9.33930435911279e-05,-0.00678454564155606,-0.000745655661217981,-0.00276156961396268,-0.00359753851376254,-1.18867816070178e-05,-0.000136574040811244,-0.0118335395058375,-0.00233932607523446,-0.000852226273691414,0.000185473490766697,-0.000224606505560665,-0.0189566581895022,-0.00361548119486432,-0.000344021381012638,-0.0027454376464684,-0.0240915793485921,-0.00116473807863704
"11:76840798:A:G",-0.00248449100909731,-0.00167417724733498,0.11688580074795,-0.00316645990025588,-0.000212519534532163,-0.000615738767336005,-0.00214414050679412,-0.00261531975186724,0.000188258659079565,3.7874366869417e-06,6.24044253418887e-05,-0.00146657175513898,5.02355965128487e-05,-0.00113819786417224,-0.000840860866685667,-0.00171017425892916,-0.00189662065434959,-0.00100282667881668,-0.007861748401643,-0.00140919670256157,-0.00146657175513898,-0.000970587035031834,-0.000313885930838254,-0.000108849298976033,-0.00210545030718201,-0.00173605990555181,0.000815646350917909,-0.00289805685849398,-0.0058360425337991,-0.00285452506601125,-0.00276474533580107,-0.00787401082606953,-0.00096012858011818,-0.0013717942539424,7.47852274853855e-05,9.02355920322506e-05,0.000372237424162591,-0.000309349466631303,-0.00463617811601669,-0.000121937570034092,2.5072444254981e-05,-0.000559419085897517,-0.00282674229236601,-7.64356582738657e-06,-0.0028267422923669,-0.00276474533580107,-0.0091933929680752,-0.00276687859821223,-0.0026539815751363,-0.000580899976118765,7.06149361153763e-05,-0.015657588422282,0.000192249912993603,-0.00721688382861796,-0.000136411627346789,-0.00469460475187145,-0.000378177694462245
"11:76841038:C:T",6.38966935895269e-06,-0.000301143379200397,-0.00316645990025588,0.0635421777485474,-8.0662135033549e-06,-1.89758931279371e-05,4.97549248139606e-05,-3.67455191252475e-06,1.74152814880202e-05,4.59453442402946e-07,5.7699000644007e-06,-4.12860833698403e-06,-2.13883399391435e-05,-0.00238489186819368,-0.00341280097091268,-1.68479205688854e-05,-0.0130907838786376,2.9110077067962e-05,-0.00212444184216309,-3.65582701951084e-05,-4.12860833698403e-06,3.47764946386775e-05,-2.83898267525728e-05,-9.39372846175957e-06,7.71484301065328e-06,1.1820643321947e-05,-2.29172780956688e-05,-0.00296270258173337,-2.0456545243519e-05,-0.00267489178656088,-1.40365615379778e-05,-0.0127029606495759,-2.17763227858825e-05,-0.00350354590674229,7.22210661852074e-06,2.28148322607424e-05,3.42088156992659e-05,-2.76697720478225e-05,-0.000883051040886151,-1.110521117198e-05,-0.00241999017011896,-2.75352025891351e-06,9.23086590276512e-07,8.21200237233199e-06,9.23086590276512e-07,-1.40365615379778e-05,-0.00621949141454525,-0.00173525275263842,1.29123543040066e-05,-0.00119605325234406,6.73373931014964e-06,-0.0014590112646431,-1.89758931270489e-05,-0.00328400200167955,3.07930606986417e-05,3.04297442612622e-05,-3.38075766865842e-05
"11:76842930:G:A",-0.00245787544060327,-0.00284427787742558,-0.000212519534532163,-8.0662135033549e-06,0.033868116138478,-3.73081662443653e-05,-0.00067490822155758,-7.20770652495872e-06,3.32526949335943e-05,8.66778448127548e-07,1.10980885885681e-05,-8.0662135033549e-06,-4.18880120127696e-05,9.09184558262055e-05,-5.07686263713225e-05,-0.0027809412755806,-0.00219209384954233,5.51289050694237e-05,3.91651944919857e-05,-0.00122326249790738,-8.0662135033549e-06,6.55740641883895e-05,-5.56768201311897e-05,-1.83437032568179e-05,1.47509723840145e-05,2.24442755714094e-05,-4.47918261547997e-05,-2.25060915042263e-05,-0.00325698992989043,-0.000226102623673619,-2.75091294383856e-05,-0.00176400547521682,-4.26247946583302e-05,-0.00139814968742602,1.38260418767189e-05,4.32653299222707e-05,-0.00410725956723645,-5.43103607748563e-05,-6.71757651877769e-05,-2.15881318039735e-05,-0.00192220430851098,-5.46689221891938e-06,1.74119570406361e-06,-0.00216505411164913,1.74119570317544e-06,-2.75091294383856e-05,-0.00241265520028477,-5.46689221891938e-06,2.46846678084722e-05,-4.11438345224724e-05,1.29089756910616e-05,-0.00209479324063722,-3.73081662434771e-05,-3.96328602310092e-05,5.82082433897568e-05,-0.00188563540641873,-6.65374205350844e-05
"11:76843775:C:T",-0.00162406654661051,-0.0019048433951081,-0.000615738767336005,-1.89758931279371e-05,-3.73081662443653e-05,0.0633349707237794,-0.00646444699476767,-0.00253733471605422,7.7809027243525e-05,1.87148827279771e-06,2.56644118392657e-05,-1.89758931279371e-05,-9.55676025657937e-05,-0.00210267223383465,-0.000116146516948135,-0.00312236439546698,-0.000492733407734036,0.000130848874960066,9.1351472657486e-05,-0.000165471898217362,-1.89758931279371e-05,-0.0011478359951882,-0.000125831452772118,-0.00303134557738716,-0.00211413227862245,-0.00713506043465095,0.000129244421159136,-5.34523320228075e-05,-0.00494126629375824,-0.00261919743739636,-0.00138284211071582,-0.000131522273644435,-9.70516198135485e-05,-0.00138284211071582,3.16664635082731e-05,-0.00179184030647761,-0.00101453637397686,-0.000960885017095237,-0.000885199624907074,-4.93639334404605e-05,-0.000603403772000632,-0.00163323736125331,3.76162294557503e-06,3.57674028412802e-05,3.76162294557503e-06,-0.00138284211071582,-0.00261156509961857,-0.00163323736125331,5.71918669658444e-05,-9.40674941860564e-05,2.96461478273002e-05,-0.00168873036183514,-0.00292940519508722,-1.81002663470764e-05,-0.00145449607403947,-0.000714421207741012,-0.000990221750011067
"11:76843815:G:C",-0.00222483405323537,-0.00325725049602799,-0.00214414050679412,4.97549248139606e-05,-0.00067490822155758,-0.00646444699476767,0.12518749697718,-0.00215308699608752,-0.000278573717041652,-0.00438871047587419,-8.65697642238317e-05,4.97549248139606e-05,-0.000148878368774419,-0.000205304124515138,-0.00832832601843148,-0.000567057871213805,-0.00354116089316747,-0.000930562803785229,-0.00140067892881568,-0.000147421645346313,4.97549248139606e-05,0.000330387791587228,0.000355948812999607,-0.00224015016297674,-0.00635503618852695,-0.00457447372677233,0.000296883202853593,1.46520544603845e-05,-0.000251971903145076,-0.00688854520380122,0.000170421531470843,-0.00466996731675007,-0.00304906341289968,-0.0018685145178523,-0.0013875691189158,-4.79088937650474e-05,-0.00237594783676176,-0.00280932060325778,-0.00296089252681764,0.000150532782232204,-0.0115128782720104,2.2529607462296e-05,-0.0068964826393012,-0.00147826765009818,-0.00294178047168625,0.000170421531470843,-0.00208795932587735,-0.0018234482024031,-0.000208270470517746,-3.58507166922095e-05,-0.00374323670010046,-0.004775435711732,0.000224415685360135,-0.00445889866510907,-0.00322437408452814,-0.00481783469054786,-0.00264696385901342
"11:76844666:T:A",-0.00215657612856557,-0.000235769354154591,-0.00261531975186724,-3.67455191252475e-06,-7.20770652495872e-06,-0.00253733471605422,-0.00215308699608752,0.0413346335107727,1.51177623015641e-05,-0.00417433132663092,5.08393166498422e-06,-3.67455191252475e-06,-1.93782380781826e-05,-0.00279409383250062,-0.00172608275042307,-1.51862582979945e-05,-0.000917083679362385,2.48327098990586e-05,1.78092567377774e-05,-3.35439106899926e-05,-3.67455191252475e-06,2.93832904612046e-05,-2.58845082630188e-05,-8.41039028998125e-06,6.78625804173549e-06,-0.00182130743855335,-2.07966060186138e-05,-1.02158770269867e-05,-4.91434969944748e-05,-0.00211131822155064,-1.26245267093594e-05,-0.00257937953701592,-1.97378469817266e-05,-0.0018453588338172,6.35576771035318e-06,1.96647252135307e-05,2.89314396315632e-05,-2.52104141749143e-05,-0.00393727528105536,-9.96534905794988e-06,2.1218832368497e-05,-2.44216150502297e-06,8.20164051340555e-07,7.22006821263221e-06,8.20164050452377e-07,-1.26245267093594e-05,-0.0037228917787866,-0.0023869173349409,1.12795477154037e-05,-0.00159386548978624,5.92856880921033e-06,-2.40660928190195e-05,-1.71471198138207e-05,-1.827870603055e-05,2.61993464478749e-05,-0.00188024395592201,-3.09615452920298e-05
"11:76845579:T:C",-3.73724940940789e-05,-0.000446201906784793,0.000188258659079565,1.74152814880202e-05,3.32526949335943e-05,7.7809027243525e-05,-0.000278573717041652,1.51177623015641e-05,0.00979039890783717,-2.35771771972537e-06,-2.66150414232058e-05,1.74152814880202e-05,8.94535057121004e-05,-0.000363914939408794,0.00010540841636697,6.74218224272494e-05,-0.000995950716419891,-0.000145748532459855,-0.000101562222617702,0.000143932609677933,1.74152814880202e-05,-0.000177925271150237,0.000117698766926466,3.98659272269342e-05,-3.69042470067527e-05,-5.90377269453768e-05,9.67629644144097e-05,-0.000897015405805668,7.9520837729774e-05,6.83200179656396e-05,-0.00118943976893338,-0.00173475357138919,9.13134695412765e-05,5.84794649087783e-05,-0.000386068403705586,-0.000114319808168339,-0.000174372849507165,0.000114292343527111,0.000139160812534733,4.83234858474901e-05,0.000485828907692998,1.04394501585503e-05,-4.74322883015077e-06,-3.95541241795527e-05,-4.74322883015077e-06,-0.00118943976893338,-0.00157721505163178,1.04394501585503e-05,-6.17052639553251e-05,8.75711553973701e-05,-3.16986859383306e-05,-0.00147342536850381,7.78090272444132e-05,8.37376595290706e-05,-0.00015594713191458,-0.000603832374585167,0.000137575577036309
"11:76845897:C:A",-8.29459822604406e-07,2.57547549864512e-06,3.7874366869417e-06,4.59453442402946e-07,8.66778448127548e-07,1.87148827279771e-06,-0.00438871047587419,-0.00417433132663092,-2.35771771972537e-06,0.0159684737122383,-7.06302828668015e-07,4.59453442402946e-07,2.07764557913492e-06,-8.90115097362809e-06,-0.000143160064421721,1.68189278593189e-06,3.98453172145707e-06,-4.37450962387231e-06,-2.87784735242269e-06,3.11984640255503e-06,4.59453442402946e-07,-5.50571003010702e-06,2.60658619488652e-06,1.00456487217571e-06,-9.66290887305377e-07,-1.5436909501787e-06,2.20358354852124e-06,1.18623131495355e-06,1.97557415582139e-06,1.77695104053299e-06,1.44279161595762e-06,-0.00363343522208748,2.10994640070794e-06,1.44279161595762e-06,-8.99621857897159e-07,-3.25633542708204e-06,-5.38560156293499e-06,2.55320306230544e-06,2.98715306534802e-06,1.17754508988099e-06,-0.00362505685740366,3.03720501193538e-07,-1.11335618058206e-07,-1.03411766527728e-06,-1.11335618946384e-07,1.44279161595762e-06,-6.35761385847644e-06,3.03720501193538e-07,-1.6848761470456e-06,2.04477934051539e-06,-8.34084366907462e-07,-1.36276041740047e-06,1.87148827368588e-06,1.97729713136141e-06,-4.70413127295899e-06,-4.69421881543752e-06,2.96477193284517e-06
"11:76846454:G:T",-1.05429265992996e-05,0.000188942412962412,6.24044253418887e-05,5.7699000644007e-06,1.10980885885681e-05,2.56644118392657e-05,-8.65697642238317e-05,5.08393166498422e-06,-2.66150414232058e-05,-7.06302828668015e-07,0.00327297421377626,5.7699000644007e-06,2.90971600120926e-05,-8.43407571222698e-05,3.45440766000848e-05,2.26062790789072e-05,6.79609558229544e-06,-4.62573883242001e-05,-3.20258793911066e-05,4.75248792985994e-05,5.7699000644007e-06,-5.63891597220589e-05,3.81469132699763e-05,1.30653618430898e-05,-1.15959004727273e-05,-1.82258219831866e-05,3.12543772285068e-05,1.53856559119703e-05,2.69731401143503e-05,2.37048603795031e-05,1.92428818337476e-05,-0.000118587407091475,2.9645908089293e-05,1.92428818337476e-05,-1.08106461826907e-05,-3.58557834863049e-05,-5.53191137857567e-05,-0.00150076541834654,4.52217622877171e-05,1.55833532957672e-05,-3.95565493764849e-05,3.68764713076786e-06,-1.42075762887828e-06,-1.23904191751123e-05,-0.00035013852778043,1.92428818337476e-05,-6.69753377691151e-05,3.68764713076786e-06,-1.95545265011532e-05,2.85419301508938e-05,-1.00344951761144e-05,-1.93866217896854e-05,2.56644118410421e-05,2.7411560169277e-05,-4.93273280293138e-05,-4.99560398923293e-05,-0.00139640093518079
"11:76849800:C:T",-7.48133847610077e-05,-0.00241779287930477,-0.00146657175513898,-4.12860833698403e-06,-8.0662135033549e-06,-1.89758931279371e-05,4.97549248139606e-05,-3.67455191252475e-06,1.74152814880202e-05,4.59453442402946e-07,5.7699000644007e-06,0.0318384814627848,-2.13883399391435e-05,4.88886850344983e-05,-0.00341280097091268,-1.68479205688854e-05,-0.00257277137036027,2.9110077067962e-05,-0.00251857745988548,-3.65582701951084e-05,0.00010221267999011,-0.00369849432628833,-2.83898267525728e-05,-9.39372846175957e-06,7.71484301065328e-06,-0.00236784921107969,-2.29172780956688e-05,-1.13982606970708e-05,-2.0456545243519e-05,-0.00318667185344967,-1.40365615379778e-05,-0.000146086778510579,-2.17763227858825e-05,-1.40365615379778e-05,7.22210661852074e-06,2.28148322607424e-05,3.42088156992659e-05,-2.76697720478225e-05,-3.41447184828425e-05,-1.110521117198e-05,2.46657146600882e-05,-2.75352025891351e-06,-0.00231700551683911,8.21200237233199e-06,9.23086590276512e-07,-1.40365615379778e-05,-4.56206942169857e-05,-2.75352025891351e-06,1.29123543040066e-05,-2.09964302131382e-05,6.73373931014964e-06,-0.00373553435676399,-1.89758931270489e-05,-0.00144529958624595,3.07930606986417e-05,-0.00242411478997173,-3.38075766865842e-05
"11:76850131:C:A",-0.00117192676225564,-0.00178629819676335,5.02355965128487e-05,-2.13883399391435e-05,-4.18880120127696e-05,-9.55676025657937e-05,-0.000148878368774419,-1.93782380781826e-05,8.94535057121004e-05,2.07764557913492e-06,2.90971600120926e-05,-2.13883399391435e-05,0.0422428455301702,0.000266043486478296,-0.000127599305468351,-0.000525692356207585,-0.000635037992522847,0.00015279117678979,-0.00270878009136499,-0.000829334543513305,-2.13883399391435e-05,0.000184741386274112,-0.000137775958259034,-4.76236352948689e-05,3.81568990626135e-05,5.75071083144252e-05,-0.000111600649222332,-0.000489289655573266,-0.00110098022209915,-0.00355084811187023,-0.00399574410064396,-0.00326926917457815,-0.0001069785401695,-7.10044053455761e-05,-0.00200327278075285,0.000116268222460469,-0.00191205914074288,-0.000524757906090301,-0.000164944971952963,-5.49819670476737e-05,-0.00303099400787232,-0.00118598055099639,4.17762305993108e-06,4.04835029561568e-05,4.1776230590429e-06,-0.00399574410064396,-0.0012931647495229,-1.52912552575657e-05,6.52853151565935e-05,-0.000103810221548706,3.35784836584807e-05,-0.00585518300024912,-0.000964942139565217,-0.000598391571899448,0.000161608015678105,-0.00024334847672236,-0.000556000497669018
"11:76850499:G:A",-0.000456453686406455,-0.0028692293643009,-0.00113819786417224,-0.00238489186819368,9.09184558262055e-05,-0.00210267223383465,-0.000205304124515138,-0.00279409383250062,-0.000363914939408794,-8.90115097362809e-06,-8.43407571222698e-05,4.88886850344983e-05,0.000266043486478296,0.0535559600871927,9.59613329660769e-05,8.00465467314382e-05,0.000469110229479597,-0.00047818171783387,-0.000490759659030893,-0.00426860572628662,4.88886850344983e-05,-0.000588228376212641,0.000353011673908554,-0.00210476469027387,-0.000123466376932058,-0.00318548504801619,0.000293721007323278,-0.000260479227585542,-0.00107888024125025,-9.16621592130795e-05,-0.00105169100822433,-0.000308581734096425,-0.00291854616848397,-0.00187079283889613,-0.000113478821423207,-0.000686262359002043,-0.000771897111157216,0.000340048791993119,-0.000322762522388942,0.000148056695186582,-0.000579252483845494,-0.00250743548049392,-1.79255592618333e-05,-0.000133596201326469,-1.79255592627214e-05,-0.00105169100822433,7.40556397609282e-05,-5.51215222035495e-05,-0.00049882085336872,-0.00163937816271265,-0.000103630594074033,-0.00333276326320897,-0.00647998898151858,-0.000438747855375787,-0.00113812982751327,-0.00223297858707383,-0.00251479976971591
"11:76855596:A:C",-0.00139451735898977,-0.00687355982356763,-0.000840860866685667,-0.00341280097091268,-5.07686263713225e-05,-0.000116146516948135,-0.00832832601843148,-0.00172608275042307,0.00010540841636697,-0.000143160064421721,3.45440766000848e-05,-0.00341280097091268,-0.000127599305468351,9.59613329660769e-05,0.0735151402914975,-0.000294211669388922,-0.00138738514780812,0.000178613853463183,-0.00208159541666397,-0.00109384778355093,-0.00341280097091268,0.000215086929294728,-0.000167079167574968,-5.74462821756327e-05,-0.00202318319184602,-0.00516706504425901,-0.000134819553075261,-7.30132766104674e-05,-1.60464639966662e-05,-0.00960278541207948,-0.00118182034780823,-0.00187553769890547,-0.00159369200647408,-8.5987060612247e-05,4.23582592441463e-05,0.000136076380310435,0.000211650339886127,-0.000163795704594349,-0.000711373004993021,-6.60187955814351e-05,-4.99636214001953e-06,-0.00301666546511115,4.84781513865329e-06,4.7705200363346e-05,4.84781513776511e-06,-0.00118182034780823,-0.00165250544623685,-0.0014154146238532,-0.00259648360937081,-0.000125743818405688,3.97264571754263e-05,-0.000882128166168172,-0.000348895654039616,-0.00120944611688056,0.000188591164032026,-0.000369186241917951,-0.00440114520750079
"11:76860347:C:T",-0.0023716183800877,-0.00404505084894069,-0.00171017425892916,-1.68479205688854e-05,-0.0027809412755806,-0.00312236439546698,-0.000567057871213805,-1.51862582979945e-05,6.74218224272494e-05,1.68189278593189e-06,2.26062790789072e-05,-1.68479205688854e-05,-0.000525692356207585,8.00465467314382e-05,-0.000294211669388922,0.0623782420637191,-0.00225183688974218,-0.00108848840624809,7.89397080760423e-05,-0.000152653790352453,-1.68479205688854e-05,0.000132009737449756,-0.000115212189714775,-3.81194277467856e-05,2.97118714955857e-05,-0.00435583200725809,0.000253686478706605,-4.78096345961632e-05,-0.00404424214687182,-0.00766062341204865,-0.00294784721944996,-0.000640772436339532,-8.82321579238621e-05,-0.00139520613423283,2.79122912720808e-05,-3.40252607964331e-05,0.000130011822331966,-0.000112644517818339,-0.000139449437959627,-4.43691477469699e-05,-0.000417573904590185,-0.000690688012381813,3.37892803781159e-06,-0.00216533095358962,3.37892803781159e-06,-0.00294784721944996,-0.000569695938783976,-1.1815715053487e-05,4.99538157079371e-05,-0.00116473505690973,2.61282815969821e-05,-0.00574195094715879,-2.99661157372455e-05,-0.0030224825129368,-0.0028149558605044,-0.00292959608899945,-0.000138266848693114
"11:76864675:T:C",-0.00226395499323173,-0.00323568324567258,-0.00189662065434959,-0.0130907838786376,-0.00219209384954233,-0.000492733407734036,-0.00354116089316747,-0.000917083679362385,-0.000995950716419891,3.98453172145707e-06,6.79609558229544e-06,-0.00257277137036027,-0.000635037992522847,0.000469110229479597,-0.00138738514780812,-0.00225183688974218,0.135303601989574,-0.00140426337278754,-0.00144645642863672,-0.000836338541149839,-0.00257277137036027,0.000279907088318154,-0.00682773501649514,-0.00155788306397753,-0.000109151554295472,-0.00161314596988893,0.00162870414059935,-0.00371241228200381,-0.00826886372525237,-0.00343608922579675,-0.000915705676125977,-0.0055195096120837,-0.00379701445560698,-0.00519051737395992,-0.00275599670702675,-0.00186671711676301,-0.00535717593657381,-0.00224101025550905,-0.00422957667790058,-0.000181228883255002,-0.00699602931900323,-0.00157412991782024,-0.00195951284327744,-0.00185020621631082,-0.0034122634402225,-0.00286548637192618,-0.00809569521335884,-0.000681440443105252,0.000137410581168673,-0.000402779635072292,-2.12235745413736e-05,-0.00214668256699424,-0.00109723666856087,-0.000181477560486254,-0.00268117480136798,-0.00251639369651491,-0.00203512242388104
"11:76864873:G:A",-0.000880415685196922,-0.000347652096170492,-0.00100282667881668,2.9110077067962e-05,5.51289050694237e-05,0.000130848874960066,-0.000930562803785229,2.48327098990586e-05,-0.000145748532459855,-4.37450962387231e-06,-4.62573883242001e-05,2.9110077067962e-05,0.00015279117678979,-0.00047818171783387,0.000178613853463183,-0.00108848840624809,-0.00140426337278754,0.0340697582292595,-0.000179016962982281,-0.000819697925916074,2.9110077067962e-05,-0.000311719138263555,0.000201887252383237,-0.00158179998121533,-6.53193081889825e-05,-0.000106396460614278,-0.00204818966302067,7.4108461943112e-05,-0.000709588910535963,-0.00204290262121365,9.85772585604394e-05,-0.00293042226692108,0.000156292713257677,-0.00136388846289037,-6.04665969401452e-05,-0.00112839495138939,-0.000305169467103461,0.000195440987218021,0.000238086875344656,8.32735938036677e-05,-0.0002322517150537,1.61193322991693e-05,-8.8017817176933e-06,-7.02319668217655e-05,-8.8017817176933e-06,9.85772585604394e-05,-0.000328489569177748,1.61193322991693e-05,-0.000108224184548256,0.000149246572789252,-5.56727441489713e-05,-0.00663711299365044,0.000130848874960954,0.000142024947296981,-0.00486841909401914,-0.0009464753633317,-0.0030536823387326
"11:76865955:G:T",-4.67218104391875e-05,-0.00472119839645035,-0.007861748401643,-0.00212444184216309,3.91651944919857e-05,9.1351472657486e-05,-0.00140067892881568,1.78092567377774e-05,-0.000101562222617702,-2.87784735242269e-06,-3.20258793911066e-05,-0.00251857745988548,-0.00270878009136499,-0.000490759659030893,-0.00208159541666397,7.89397080760423e-05,-0.00144645642863672,-0.000179016962982281,0.0778430577509415,0.000167241040204935,-0.00251857745988548,-0.000219684811973764,0.000137882349791063,4.71483146062823e-05,-4.47168036217249e-05,-7.22016018546157e-05,0.000113836916614041,-0.00171909570400075,-0.00167560994265781,-0.00166327382540388,-0.00452484724834878,-0.0033067545335026,0.000107393617758689,-0.00226576129080769,-4.14821646712582e-05,-0.00110678008508902,-0.000215102174366599,0.000133884232316639,-0.00158756783194391,5.7322506823887e-05,-0.00288280366338878,-0.00174261871276382,-5.79260678978955e-06,-4.79940614086516e-05,-5.79260678890137e-06,-0.00452484724834878,-0.00603561516652773,-0.00262197926298846,-7.48671806620749e-05,-0.00197339379973105,-3.82893261425821e-05,-0.00544681914340073,-0.00191982826942994,-0.00451245253645904,-0.000192078894070136,-0.000292469971046927,0.000160506914491876
"11:76866587:G:A",-0.00599680778145917,-0.0047026698371293,-0.00140919670256157,-3.65582701951084e-05,-0.00122326249790738,-0.000165471898217362,-0.000147421645346313,-3.35439106899926e-05,0.000143932609677933,3.11984640255503e-06,4.75248792985994e-05,-3.65582701951084e-05,-0.000829334543513305,-0.00426860572628662,-0.00109384778355093,-0.000152653790352453,-0.000836338541149839,-0.000819697925916074,0.000167241040204935,0.0756013005296263,-3.65582701951084e-05,-0.0030254010248898,-0.00183636423007272,-8.1033591093238e-05,6.1094991017363e-05,9.00029873029951e-05,-0.000188999300076098,-0.00127173451807039,-0.00538610511044357,-0.000132529448728214,-0.0025155716045413,-0.00576371456296387,-0.00142823609500997,-0.000401215699153745,5.76497326072456e-05,0.000183592351704398,-0.000884607059014719,0.000154227691835374,-0.00305523168854993,-9.20351030222477e-05,-0.00141475566500038,-2.74171605276763e-05,6.27227680194409e-06,6.45763015061362e-05,6.27227680194409e-06,-0.0025155716045413,-0.00762104123242668,-0.00127320508903495,0.000105018209725749,-0.000925037560965514,-0.00255375544009873,-0.0034382986907131,-0.00520142780490485,-0.000452341717520177,-0.00199330185480484,-0.0015424983978134,0.00011813292413354
"11:76866955:G:A",-7.48133847610077e-05,-0.00241779287930477,-0.00146657175513898,-4.12860833698403e-06,-8.0662135033549e-06,-1.89758931279371e-05,4.97549248139606e-05,-3.67455191252475e-06,1.74152814880202e-05,4.59453442402946e-07,5.7699000644007e-06,0.00010221267999011,-2.13883399391435e-05,4.88886850344983e-05,-0.00341280097091268,-1.68479205688854e-05,-0.00257277137036027,2.9110077067962e-05,-0.00251857745988548,-3.65582701951084e-05,0.0318384814627848,-0.00369849432628833,-2.83898267525728e-05,-9.39372846175957e-06,7.71484301065328e-06,-0.00236784921107969,-2.29172780956688e-05,-1.13982606970708e-05,-2.0456545243519e-05,-0.00318667185344967,-1.40365615379778e-05,-0.000146086778510579,-2.17763227858825e-05,-1.40365615379778e-05,7.22210661852074e-06,2.28148322607424e-05,3.42088156992659e-05,-2.76697720478225e-05,-3.41447184828425e-05,-1.110521117198e-05,2.46657146600882e-05,-2.75352025891351e-06,-0.00231700551683911,8.21200237233199e-06,9.23086590276512e-07,-1.40365615379778e-05,-4.56206942169857e-05,-2.75352025891351e-06,1.29123543040066e-05,-2.09964302131382e-05,6.73373931014964e-06,-0.00373553435676399,-1.89758931270489e-05,-0.00144529958624595,3.07930606986417e-05,-0.00242411478997173,-3.38075766865842e-05
"11:76867135:C:T",-0.00395956544495402,-0.00143876001511867,-0.000970587035031834,3.47764946386775e-05,6.55740641883895e-05,-0.0011478359951882,0.000330387791587228,2.93832904612046e-05,-0.000177925271150237,-5.50571003010702e-06,-5.63891597220589e-05,-0.00369849432628833,0.000184741386274112,-0.000588228376212641,0.000215086929294728,0.000132009737449756,0.000279907088318154,-0.000311719138263555,-0.000219684811973764,-0.0030254010248898,-0.00369849432628833,0.0456396070893268,0.00024469102634761,8.11842149328612e-05,-0.00457853109939244,-0.000746266454045852,0.000202185025172774,8.73484188526064e-05,-0.00102829572599017,-0.00367499924952241,0.000118336681143028,-0.00105489077643917,0.000189182508727903,0.000118336681143028,-0.000671284567901331,-0.00121045855956403,-0.000372974859106812,0.000236493665261683,0.000288225677727461,0.000101121093613266,-0.00375715366864426,1.83949455729859e-05,-0.000673141386312359,-0.0018087398833293,-1.10784490470195e-05,0.000118336681143028,-0.000830079386698657,1.83949455729859e-05,-0.000132509550603288,0.000180245130759538,-0.00026306165173029,-0.00225498593296702,-0.0012689835425217,-0.00335093954577825,-0.000335310927694898,-0.00187604652007511,0.000284371804966099
"11:76870147:C:T",-0.00139347360317377,-0.000499733425066928,-0.000313885930838254,-2.83898267525728e-05,-5.56768201311897e-05,-0.000125831452772118,0.000355948812999607,-2.58845082630188e-05,0.000117698766926466,2.60658619488652e-06,3.81469132699763e-05,-2.83898267525728e-05,-0.000137775958259034,0.000353011673908554,-0.000167079167574968,-0.000115212189714775,-0.00682773501649514,0.000201887252383237,0.000137882349791063,-0.00183636423007272,-2.83898267525728e-05,0.00024469102634761,0.0333145353534041,-6.2771865422917e-05,4.96002809988738e-05,7.41106024735316e-05,-0.000145295387250499,-0.000658657414505548,-0.000141495750075826,-0.00080612006722891,-0.000511805448796032,-0.00512032351850333,-0.000139687764654894,-9.35782441908728e-05,4.66893247255129e-05,0.000152118351354424,0.000240697014852742,-0.000113688056981864,-0.000214458483164925,-7.18669632417956e-05,0.000159399887594169,-2.07886683698533e-05,5.24190985551343e-06,5.25438690157642e-05,5.24190985551343e-06,-9.35782441908728e-05,-0.00534819785968299,-2.07886683698533e-05,8.54800738778749e-05,-0.000296373742190603,4.38104610180901e-05,-0.00246355756008576,-0.000125831452772118,-0.000131907558369448,0.000213347594671731,-0.00757687123007322,-0.000153224284777487
"11:76873770:C:T",1.36133341470668e-05,-0.00177314011452268,-0.000108849298976033,-9.39372846175957e-06,-1.83437032568179e-05,-0.00303134557738716,-0.00224015016297674,-8.41039028998125e-06,3.98659272269342e-05,1.00456487217571e-06,1.30653618430898e-05,-9.39372846175957e-06,-4.76236352948689e-05,-0.00210476469027387,-5.74462821756327e-05,-3.81194277467856e-05,-0.00155788306397753,-0.00158179998121533,4.71483146062823e-05,-8.1033591093238e-05,-9.39372846175957e-06,8.11842149328612e-05,-6.2771865422917e-05,0.0420184125218235,1.73805530723214e-05,-0.00193433188445713,-5.08082384103048e-05,-2.59912682132324e-05,-4.63686829235144e-05,-0.00152210153145926,-3.15905477474843e-05,-0.000706445263552347,-4.84325002112485e-05,-0.00125104014848976,1.62856359535724e-05,-0.00522089863463826,7.98255362637335e-05,-6.12915094553301e-05,-0.0046487949003069,-2.48443839110379e-05,5.62011644937854e-05,-0.00305839751151282,2.01919550146812e-06,1.8486480030333e-05,2.01919550146812e-06,-3.15905477474843e-05,-0.00220585101317283,-0.00305839751151282,2.93542092038024e-05,-4.68060681440008e-05,1.52015690160212e-05,-0.000439004118047315,-0.00335170595104017,-4.51442641207223e-05,-0.00189646537358534,6.96791900649529e-05,-7.45821458991713e-05
"11:76875173:G:A",-1.47419829881201e-05,-0.0088346391541263,-0.00210545030718201,7.71484301065328e-06,1.47509723840145e-05,-0.00211413227862245,-0.00635503618852695,6.78625804173549e-06,-3.69042470067527e-05,-9.66290887305377e-07,-1.15959004727273e-05,7.71484301065328e-06,3.81568990626135e-05,-0.000123466376932058,-0.00202318319184602,2.97118714955857e-05,-0.000109151554295472,-6.53193081889825e-05,-4.47168036217249e-05,6.1094991017363e-05,7.71484301065328e-06,-0.00457853109939244,4.96002809988738e-05,1.73805530723214e-05,0.0493600798180038,-0.00148420112220826,4.09349496894862e-05,-5.19070595350613e-05,3.5256041056364e-05,-0.000138561396444636,2.54354864903661e-05,-1.55173002447384e-06,3.88649278972863e-05,2.54354864903661e-05,-1.48014111820416e-05,-5.02962648942784e-05,-7.87396582291322e-05,4.83335198318002e-05,5.83653912320514e-05,2.07294228831145e-05,-0.00632229532405848,4.89185215091226e-06,-1.94521041141371e-06,-1.70102532965899e-05,-1.94521041230189e-06,2.54354864903661e-05,-0.006532058473117,4.89185215091226e-06,-2.6966789422822e-05,3.74395664906046e-05,-0.00380794760942749,-0.00347430723923114,3.37067859756957e-05,3.59762549209108e-05,-6.98958464280253e-05,-0.00160192742695831,5.77895125122296e-05
"11:76877650:G:A",-0.00232640400163575,-0.00240944022504053,-0.00173605990555181,1.1820643321947e-05,2.24442755714094e-05,-0.00713506043465095,-0.00457447372677233,-0.00182130743855335,-5.90377269453768e-05,-1.5436909501787e-06,-1.82258219831866e-05,-0.00236784921107969,5.75071083144252e-05,-0.00318548504801619,-0.00516706504425901,-0.00435583200725809,-0.00161314596988893,-0.000106396460614278,-7.22016018546157e-05,9.00029873029951e-05,-0.00236784921107969,-0.000746266454045852,7.41106024735316e-05,-0.00193433188445713,-0.00148420112220826,0.0841866839307004,-0.00035589150182691,3.06833560124176e-05,-0.00692253197957005,-0.00380731116621558,-0.00193021153016915,-0.00126509704720634,5.85699682824625e-05,3.85843443035938e-05,-2.34403418950535e-05,-0.00128264927882515,-0.000607937291343674,-0.00141493216748501,-0.0012969337640456,3.17472818887055e-05,-0.00155036429675803,-0.00226148954309391,-3.1103135951227e-06,-2.70497995522589e-05,-3.11031359601088e-06,-0.00193021153016915,-0.0045938725329453,-0.00226148954309391,-4.29659664327176e-05,5.64284230524237e-05,-2.16761173232882e-05,-0.00055501669721103,-0.00414577151668549,-0.000546892571153812,-0.00214410891031314,-0.000778064238525999,-0.00140427597534742
"11:76878907:G:C",2.7289387064755e-05,-0.000125923647123827,0.000815646350917909,-2.29172780956688e-05,-4.47918261547997e-05,0.000129244421159136,0.000296883202853593,-2.07966060186138e-05,9.67629644144097e-05,2.20358354852124e-06,3.12543772285068e-05,-2.29172780956688e-05,-0.000111600649222332,0.000293721007323278,-0.000134819553075261,0.000253686478706605,0.00162870414059935,-0.00204818966302067,0.000113836916614041,-0.000188999300076098,-2.29172780956688e-05,0.000202185025172774,-0.000145295387250499,-5.08082384103048e-05,4.09349496894862e-05,-0.00035589150182691,0.00104781859759662,-6.39312991035368e-05,0.000301423629972319,-0.000103424322610124,-7.55592284313877e-05,5.3833167861228e-06,-0.000113231525383561,-7.55592284313877e-05,3.84741295098578e-05,0.000125889287598824,0.000198796094331044,-0.000142388256842985,-0.000173441456813528,-5.85186512802593e-05,-0.000138279941258368,-1.64825608539587e-05,4.43168471697675e-06,4.34236562938395e-05,4.43168471608857e-06,-7.55592284313877e-05,-1.46251731356628e-05,-1.64825608539587e-05,7.03545029221431e-05,-0.000109951007758013,3.60407295865173e-05,0.000212094192954204,-0.000101409648416428,-0.000106594118219228,-0.00108915928842368,-7.83120094185463e-05,-0.00017213660014459
"11:76881718:C:T",-0.0035753806640173,-0.00640334164760237,-0.00289805685849398,-0.00296270258173337,-2.25060915042263e-05,-5.34523320228075e-05,1.46520544603845e-05,-1.02158770269867e-05,-0.000897015405805668,1.18623131495355e-06,1.53856559119703e-05,-1.13982606970708e-05,-0.000489289655573266,-0.000260479227585542,-7.30132766104674e-05,-4.78096345961632e-05,-0.00371241228200381,7.4108461943112e-05,-0.00171909570400075,-0.00127173451807039,-1.13982606970708e-05,8.73484188526064e-05,-0.000658657414505548,-2.59912682132324e-05,-5.19070595350613e-05,3.06833560124176e-05,-6.39312991035368e-05,0.0677340754367646,-0.00323127220538311,-8.71911921205282e-05,-0.00189114736375195,-7.87474764289975e-05,-0.000958467885582515,-3.92007290912488e-05,-0.00160222414460165,-0.0010676483045069,-0.000964835774697193,-7.79842414955212e-05,-0.000899138757842088,-3.0494212746035e-05,-0.0074490428230698,-7.82037073321362e-06,-0.0022724211608649,-0.00222467351244759,2.38213006475974e-06,-0.004328173712838,-0.00503083497005896,-0.00169658218787117,3.38897982015141e-05,-0.000368155175358709,1.7838336876963e-05,-0.00399601356048729,-0.00016948168904829,-0.00295180991210664,7.80187218776263e-05,-0.000441863187105263,-0.00100455473264471
"11:76882308:T:C",-0.00106491737897052,-0.000437281955848245,-0.0058360425337991,-2.0456545243519e-05,-0.00325698992989043,-0.00494126629375824,-0.000251971903145076,-4.91434969944748e-05,7.9520837729774e-05,1.97557415582139e-06,2.69731401143503e-05,-2.0456545243519e-05,-0.00110098022209915,-0.00107888024125025,-1.60464639966662e-05,-0.00404424214687182,-0.00826886372525237,-0.000709588910535963,-0.00167560994265781,-0.00538610511044357,-2.0456545243519e-05,-0.00102829572599017,-0.000141495750075826,-4.63686829235144e-05,3.5256041056364e-05,-0.00692253197957005,0.000301423629972319,-0.00323127220538311,0.128878313633281,-0.00100074319978383,-0.00295586579679163,-0.00616155631019399,-0.00278394922864855,-0.000110465024093287,3.315996205977e-05,-1.13313281717708e-05,-0.00619911711367482,-0.000138451658583172,-0.00185616321512416,-0.00188727960027002,-0.00752133740188299,-0.00523544607122695,3.96817050685172e-06,-0.000948087326881897,-0.00223670178852231,-0.00295586579679163,-0.00334109678178329,-0.00166842600071249,-0.00161037481582582,-0.000104641625274127,-0.00187269031332971,-0.0127364103397238,-0.00437402313121815,-0.00299640853809713,-0.000177272101590908,-0.0087569654766444,-0.000170656768848865
"11:76884503:T:A",-0.00157418484070959,-0.00564337244552648,-0.00285452506601125,-0.00267489178656088,-0.000226102623673619,-0.00261919743739636,-0.00688854520380122,-0.00211131822155064,6.83200179656396e-05,1.77695104053299e-06,2.37048603795031e-05,-0.00318667185344967,-0.00355084811187023,-9.16621592130795e-05,-0.00960278541207948,-0.00766062341204865,-0.00343608922579675,-0.00204290262121365,-0.00166327382540388,-0.000132529448728214,-0.00318667185344967,-0.00367499924952241,-0.00080612006722891,-0.00152210153145926,-0.000138561396444636,-0.00380731116621558,-0.000103424322610124,-8.71911921205282e-05,-0.00100074319978383,0.100546877184391,-0.000144452577654164,-0.000417434657218774,-9.87643965197904e-05,-0.00322967823294462,2.91485779735368e-05,-1.4778756129985e-06,0.000123670252333064,-0.00382328814827648,-0.00105775404559161,-4.85030895980287e-05,8.46286942577379e-05,-0.00388225867553516,3.56694749559239e-06,3.28369880531199e-05,-1.88689571700706e-06,-0.000144452577654164,-0.000907857752441732,-0.00180203393982481,5.13455312276534e-05,-0.00274191064023466,-0.00306204296387325,-0.00331151147355468,-0.000827028521192652,-9.2336042571084e-05,0.000113236991976962,-0.00143861696427994,-0.00375917585293006
"11:76884885:G:C",-0.00263435024839964,-0.000136574040811244,-0.00276474533580107,-1.40365615379778e-05,-2.75091294383856e-05,-0.00138284211071582,0.000170421531470843,-1.26245267093594e-05,-0.00118943976893338,1.44279161595762e-06,1.92428818337476e-05,-1.40365615379778e-05,-0.00399574410064396,-0.00105169100822433,-0.00118182034780823,-0.00294784721944996,-0.000915705676125977,9.85772585604394e-05,-0.00452484724834878,-0.0025155716045413,-1.40365615379778e-05,0.000118336681143028,-0.000511805448796032,-3.15905477474843e-05,2.54354864903661e-05,-0.00193021153016915,-7.55592284313877e-05,-0.00189114736375195,-0.00295586579679163,-0.000144452577654164,0.0552438523081573,-0.00100410891667346,-0.00441120651748239,-4.7225525400485e-05,2.38644907080143e-05,7.61857129196741e-05,0.000116407117092265,-9.14682210293449e-05,-0.000112447546737116,-3.68389953875337e-05,-0.00229766708762469,-9.75683838255748e-06,2.89990731960899e-06,2.70220775657748e-05,2.89990732049716e-06,-0.00292256359439591,-3.5432748397568e-06,-9.75683838255748e-06,-0.00275997919929249,-6.98350698256078e-05,2.23088689157436e-05,-2.27039329634415e-05,-0.00372353174393858,-0.00326593715678314,0.000104229963889146,-0.00228902379439955,-0.000111478187556635
"11:76885079:C:G",-0.000624417849253156,-0.00414902521989857,-0.00787401082606953,-0.0127029606495759,-0.00176400547521682,-0.000131522273644435,-0.00466996731675007,-0.00257937953701592,-0.00173475357138919,-0.00363343522208748,-0.000118587407091475,-0.000146086778510579,-0.00326926917457815,-0.000308581734096425,-0.00187553769890547,-0.000640772436339532,-0.0055195096120837,-0.00293042226692108,-0.0033067545335026,-0.00576371456296387,-0.000146086778510579,-0.00105489077643917,-0.00512032351850333,-0.000706445263552347,-1.55173002447384e-06,-0.00126509704720634,5.3833167861228e-06,-7.87474764289975e-05,-0.00616155631019399,-0.000417434657218774,-0.00100410891667346,0.14213299525723,-0.00717984818106565,-0.000149126853147052,-0.00781199392896958,-0.00329473016019177,-0.000816176171899663,-5.01780522155215e-05,-0.00164299843346249,1.29518917271199e-05,-0.000533040962601206,-0.000808364925155125,-0.00268178811748232,-0.00208152652897109,-8.64682429391195e-06,-0.00240446234307834,-0.00342121330449485,-0.00948416706122135,-0.00011703546273889,-0.00555973077749439,-0.00160792363657603,-0.0039902380229635,-4.20119475776914e-05,-0.00301788630680333,-0.00412209338077929,-0.00126863365701224,-0.000358558804902209
"11:76885164:A:G",-0.0023258008552185,-0.00362891044439362,-0.00096012858011818,-2.17763227858825e-05,-4.26247946583302e-05,-9.70516198135485e-05,-0.00304906341289968,-1.97378469817266e-05,9.13134695412765e-05,2.10994640070794e-06,2.9645908089293e-05,-2.17763227858825e-05,-0.0001069785401695,-0.00291854616848397,-0.00159369200647408,-8.82321579238621e-05,-0.00379701445560698,0.000156292713257677,0.000107393617758689,-0.00142823609500997,-2.17763227858825e-05,0.000189182508727903,-0.000139687764654894,-4.84325002112485e-05,3.88649278972863e-05,5.85699682824625e-05,-0.000113231525383561,-0.000958467885582515,-0.00278394922864855,-9.87643965197904e-05,-0.00441120651748239,-0.00717984818106565,0.0615393949998397,-0.00441120651748239,3.65225144252079e-05,-0.00165475200531251,-0.0033513085979715,-0.000136841362081697,-0.000319637272568229,0.000741226131923511,-0.00120651462375676,-1.55925832014958e-05,4.24279011923545e-06,4.12331363497387e-05,4.24279011834727e-06,-0.00441120651748239,-0.00524547289594501,-0.00105247715569146,6.65760424416462e-05,-0.000105370966004159,3.42054778990075e-05,-0.00402719086467318,-9.70516198144367e-05,-0.00010210049037962,0.000165339782864038,-0.00114887712929512,-0.000165822178617603
"11:76885611:C:T",-0.00153654379203783,-0.00842222487756583,-0.0013717942539424,-0.00350354590674229,-0.00139814968742602,-0.00138284211071582,-0.0018685145178523,-0.0018453588338172,5.84794649087783e-05,1.44279161595762e-06,1.92428818337476e-05,-1.40365615379778e-05,-7.10044053455761e-05,-0.00187079283889613,-8.5987060612247e-05,-0.00139520613423283,-0.00519051737395992,-0.00136388846289037,-0.00226576129080769,-0.000401215699153745,-1.40365615379778e-05,0.000118336681143028,-9.35782441908728e-05,-0.00125104014848976,2.54354864903661e-05,3.85843443035938e-05,-7.55592284313877e-05,-3.92007290912488e-05,-0.000110465024093287,-0.00322967823294462,-4.7225525400485e-05,-0.000149126853147052,-0.00441120651748239,0.0522075668945305,2.38644907080143e-05,7.61857129196741e-05,0.000116407117092265,-9.14682210293449e-05,-0.000112447546737116,-3.68389953875337e-05,8.14384706648852e-05,-0.0015367291892856,2.89990731960899e-06,2.70220775657748e-05,2.89990732049716e-06,-0.00127389660109944,-0.000535388473405618,-9.75683838255748e-06,-0.00193522946360591,-6.98350698256078e-05,2.23088689157436e-05,4.7997414192924e-05,-0.00275274137497306,-6.74582584343497e-05,0.000104229963889146,-0.0010325733833465,-0.000111478187556635
"11:76892830:T:G",-0.00176602173863127,-0.0130494823314455,7.47852274853855e-05,7.22210661852074e-06,1.38260418767189e-05,3.16664635082731e-05,-0.0013875691189158,6.35576771035318e-06,-0.000386068403705586,-8.99621857897159e-07,-1.08106461826907e-05,7.22210661852074e-06,-0.00200327278075285,-0.000113478821423207,4.23582592441463e-05,2.79122912720808e-05,-0.00275599670702675,-6.04665969401452e-05,-4.14821646712582e-05,5.76497326072456e-05,7.22210661852074e-06,-0.000671284567901331,4.66893247255129e-05,1.62856359535724e-05,-1.48014111820416e-05,-2.34403418950535e-05,3.84741295098578e-05,-0.00160222414460165,3.315996205977e-05,2.91485779735368e-05,2.38644907080143e-05,-0.00781199392896958,3.65225144252079e-05,2.38644907080143e-05,0.0532215535850158,-4.66122919622336e-05,-7.27774424067462e-05,4.54912445579936e-05,5.50250949880038e-05,1.94213660176246e-05,-0.0035383821459245,4.58918955814624e-06,-1.81071460403359e-06,-0.00148221777795765,-1.81071460492177e-06,2.38644907080143e-05,-0.00378299577600849,4.58918955814624e-06,-2.50790646072474e-05,3.51796316273578e-05,-1.27803761511558e-05,-0.00196628933486931,3.16664635091612e-05,-0.00235391127380602,-6.46564101245417e-05,-0.00705358948660884,-0.00186340334942514
"11:76892891:C:T",-5.37013242265516e-05,-0.000876084694970469,9.02355920322506e-05,2.28148322607424e-05,4.32653299222707e-05,-0.00179184030647761,-4.79088937650474e-05,1.96647252135307e-05,-0.000114319808168339,-3.25633542708204e-06,-3.58557834863049e-05,2.28148322607424e-05,0.000116268222460469,-0.000686262359002043,0.000136076380310435,-3.40252607964331e-05,-0.00186671711676301,-0.00112839495138939,-0.00110678008508902,0.000183592351704398,2.28148322607424e-05,-0.00121045855956403,0.000152118351354424,-0.00522089863463826,-5.02962648942784e-05,-0.00128264927882515,0.000125889287598824,-0.0010676483045069,-1.13313281717708e-05,-1.4778756129985e-06,7.61857129196741e-05,-0.00329473016019177,-0.00165475200531251,7.61857129196741e-05,-4.66122919622336e-05,0.0435257867190604,-0.000244015276785525,0.000147688566941362,0.00017870512241025,6.3673395781727e-05,-0.000353577925233495,-0.00668562971033992,-6.55641697200338e-06,-0.00130767432401058,-6.55641697200338e-06,7.61857129196741e-05,-0.00032870160251175,1.32345010612767e-05,-8.4225805435878e-05,0.000113781480401087,-0.0011460468607094,-0.00358312484818857,-0.00686257161802928,0.00010870557597098,-0.000217788566548194,-0.00307988413744287,0.000176667894655758
"11:76893341:G:A",-0.00108142826587798,-0.00638091925473816,0.000372237424162591,3.42088156992659e-05,-0.00410725956723645,-0.00101453637397686,-0.00237594783676176,2.89314396315632e-05,-0.000174372849507165,-5.38560156293499e-06,-5.53191137857567e-05,3.42088156992659e-05,-0.00191205914074288,-0.000771897111157216,0.000211650339886127,0.000130011822331966,-0.00535717593657381,-0.000305169467103461,-0.000215102174366599,-0.000884607059014719,3.42088156992659e-05,-0.000372974859106812,0.000240697014852742,7.98255362637335e-05,-7.87396582291322e-05,-0.000607937291343674,0.000198796094331044,-0.000964835774697193,-0.00619911711367482,0.000123670252333064,0.000116407117092265,-0.000816176171899663,-0.0033513085979715,0.000116407117092265,-7.27774424067462e-05,-0.000244015276785525,0.051080550875156,-0.00210180502076174,0.000283637521462765,-0.00239158404919237,-0.000281942948137548,1.81810584507502e-05,-0.00115542089912957,-8.47754605306505e-05,-1.08361134527613e-05,0.000116407117092265,-0.000518956501323942,1.81810584507502e-05,-0.000129861405859799,0.000177278139132042,-6.68874770983763e-05,-0.00028875179412946,0.000154394755604415,-0.00119776087692625,-0.00032813985761404,-0.00570629157717395,-0.00195781521057281
"11:76893753:C:T",-0.00132482305579096,-0.000523874810449243,-0.000309349466631303,-2.76697720478225e-05,-5.43103607748563e-05,-0.000960885017095237,-0.00280932060325778,-2.52104141749143e-05,0.000114292343527111,2.55320306230544e-06,-0.00150076541834654,-2.76697720478225e-05,-0.000524757906090301,0.000340048791993119,-0.000163795704594349,-0.000112644517818339,-0.00224101025550905,0.000195440987218021,0.000133884232316639,0.000154227691835374,-2.76697720478225e-05,0.000236493665261683,-0.000113688056981864,-6.12915094553301e-05,4.83335198318002e-05,-0.00141493216748501,-0.000142388256842985,-7.79842414955212e-05,-0.000138451658583172,-0.00382328814827648,-9.14682210293449e-05,-5.01780522155215e-05,-0.000136841362081697,-9.14682210293449e-05,4.54912445579936e-05,0.000147688566941362,-0.00210180502076174,0.0263260322577761,-0.000371933948478897,-7.02438679764938e-05,-0.00118597757739103,-2.02089786220938e-05,5.13420921599561e-06,-0.00155189187872651,-0.0039444200869676,-9.14682210293449e-05,-0.000869039469856503,-2.02089786220938e-05,8.31380713437468e-05,-0.000133038156326926,4.26798630606129e-05,-0.000139519315268011,-0.000123140101472075,-0.000129147337410096,-0.00255166289695996,-6.37981237838758e-05,0.00226780205386401
"11:76894954:C:T",-0.00354794247899015,-0.00429109509568182,-0.00463617811601669,-0.000883051040886151,-6.71757651877769e-05,-0.000885199624907074,-0.00296089252681764,-0.00393727528105536,0.000139160812534733,2.98715306534802e-06,4.52217622877171e-05,-3.41447184828425e-05,-0.000164944971952963,-0.000322762522388942,-0.000711373004993021,-0.000139449437959627,-0.00422957667790058,0.000238086875344656,-0.00158756783194391,-0.00305523168854993,-3.41447184828425e-05,0.000288225677727461,-0.000214458483164925,-0.0046487949003069,5.83653912320514e-05,-0.0012969337640456,-0.000173441456813528,-0.000899138757842088,-0.00185616321512416,-0.00105775404559161,-0.000112447546737116,-0.00164299843346249,-0.000319637272568229,-0.000112447546737116,5.50250949880038e-05,0.00017870512241025,0.000283637521462765,-0.000371933948478897,0.0593531595023347,-8.56367947248415e-05,-0.00406493502789917,-2.54530233956274e-05,6.0071231366976e-06,-0.0014379102910933,6.0071231366976e-06,-0.000112447546737116,-0.0010341392130977,-0.00724910133660561,0.000100913103382894,-0.000162759996117146,5.17214553177325e-05,-0.00190421214394032,-0.00015144846127324,-0.000158314057341791,0.000251255508714188,-5.91244566940929e-05,-0.000418842005085907
"11:76894973:C:A",1.58675966250854e-05,-9.33930435911279e-05,-0.000121937570034092,-1.110521117198e-05,-2.15881318039735e-05,-4.93639334404605e-05,0.000150532782232204,-9.96534905794988e-06,4.83234858474901e-05,1.17754508988099e-06,1.55833532957672e-05,-1.110521117198e-05,-5.49819670476737e-05,0.000148056695186582,-6.60187955814351e-05,-4.43691477469699e-05,-0.000181228883255002,8.32735938036677e-05,5.7322506823887e-05,-9.20351030222477e-05,-1.110521117198e-05,0.000101121093613266,-7.18669632417956e-05,-2.48443839110379e-05,2.07294228831145e-05,3.17472818887055e-05,-5.85186512802593e-05,-3.0494212746035e-05,-0.00188727960027002,-4.85030895980287e-05,-3.68389953875337e-05,1.29518917271199e-05,0.000741226131923511,-3.68389953875337e-05,1.94213660176246e-05,6.3673395781727e-05,-0.00239158404919237,-7.02438679764938e-05,-8.56367947248415e-05,0.00424929834797627,6.84222186997374e-05,-7.64670092756603e-06,2.36814160015086e-06,2.20522446729987e-05,2.36814160015086e-06,-3.68389953875337e-05,-3.42818019323232e-05,-7.64670092756603e-06,3.53159438661876e-05,-5.40724595605724e-05,1.81278282092023e-05,1.60067913714812e-05,-4.93639334395723e-05,-5.22218068983449e-05,8.83592905918107e-05,-0.000175510869695472,-8.48966607458479e-05
"11:76895440:C:T",-0.000767676331752121,-0.00678454564155606,2.5072444254981e-05,-0.00241999017011896,-0.00192220430851098,-0.000603403772000632,-0.0115128782720104,2.1218832368497e-05,0.000485828907692998,-0.00362505685740366,-3.95565493764849e-05,2.46657146600882e-05,-0.00303099400787232,-0.000579252483845494,-4.99636214001953e-06,-0.000417573904590185,-0.00699602931900323,-0.0002322517150537,-0.00288280366338878,-0.00141475566500038,2.46657146600882e-05,-0.00375715366864426,0.000159399887594169,5.62011644937854e-05,-0.00632229532405848,-0.00155036429675803,-0.000138279941258368,-0.0074490428230698,-0.00752133740188299,8.46286942577379e-05,-0.00229766708762469,-0.000533040962601206,-0.00120651462375676,8.14384706648852e-05,-0.0035383821459245,-0.000353577925233495,-0.000281942948137548,-0.00118597757739103,-0.00406493502789917,6.84222186997374e-05,0.111236117181568,-2.34403057763899e-06,-0.00271723398297397,6.47110524729655e-05,-7.26551207197446e-06,-0.00229766708762469,-0.00575668830425879,-0.00454594757748605,-0.00125793150856257,-0.000158048355437757,-0.00144659872874886,-0.000794450279423486,-0.00220567206215883,-0.00170025519798411,-0.00121123911038179,-0.00212446872421168,-0.00267207904362188
"11:76896526:G:A",-0.00232385436579641,-0.000745655661217981,-0.000559419085897517,-2.75352025891351e-06,-5.46689221891938e-06,-0.00163323736125331,2.2529607462296e-05,-2.44216150502297e-06,1.04394501585503e-05,3.03720501193538e-07,3.68764713076786e-06,-2.75352025891351e-06,-0.00118598055099639,-0.00250743548049392,-0.00301666546511115,-0.000690688012381813,-0.00157412991782024,1.61193322991693e-05,-0.00174261871276382,-2.74171605276763e-05,-2.75352025891351e-06,1.83949455729859e-05,-2.07886683698533e-05,-0.00305839751151282,4.89185215091226e-06,-0.00226148954309391,-1.64825608539587e-05,-7.82037073321362e-06,-0.00523544607122695,-0.00388225867553516,-9.75683838255748e-06,-0.000808364925155125,-1.55925832014958e-05,-0.0015367291892856,4.58918955814624e-06,-0.00668562971033992,1.81810584507502e-05,-2.02089786220938e-05,-2.54530233956274e-05,-7.64670092756603e-06,-2.34403057763899e-06,0.0536442138835511,6.08901212117985e-07,5.19554885158868e-06,6.08901212117985e-07,-9.75683838255748e-06,-0.0030545483682074,-1.81421606360033e-06,7.95220988525358e-06,-1.49875581829662e-05,4.2875859094238e-06,-0.00334114588871781,-0.00561655401958205,-1.43729731592046e-05,1.68359978287569e-05,-0.00208280585933451,-2.51733401306353e-05
"11:76898686:G:A",-1.67862223676707e-06,-0.00276156961396268,-0.00282674229236601,9.23086590276512e-07,1.74119570406361e-06,3.76162294557503e-06,-0.0068964826393012,8.20164051340555e-07,-4.74322883015077e-06,-1.11335618058206e-07,-1.42075762887828e-06,-0.00231700551683911,4.17762305993108e-06,-1.79255592618333e-05,4.84781513865329e-06,3.37892803781159e-06,-0.00195951284327744,-8.8017817176933e-06,-5.79260678978955e-06,6.27227680194409e-06,-0.00231700551683911,-0.000673141386312359,5.24190985551343e-06,2.01919550146812e-06,-1.94521041141371e-06,-3.1103135951227e-06,4.43168471697675e-06,-0.0022724211608649,3.96817050685172e-06,3.56694749559239e-06,2.89990731960899e-06,-0.00268178811748232,4.24279011923545e-06,2.89990731960899e-06,-1.81071460403359e-06,-6.55641697200338e-06,-0.00115542089912957,5.13420921599561e-06,6.0071231366976e-06,2.36814160015086e-06,-0.00271723398297397,6.08901212117985e-07,0.0491967216665614,-2.08204868901163e-06,-2.24571349960456e-07,2.89990731960899e-06,-0.00402836805755946,6.08901212117985e-07,-3.39048759556704e-06,4.11131189803626e-06,-1.67850808363568e-06,-0.00718046445119747,3.76162294646321e-06,-0.00210126720599924,-9.46685575797801e-06,-0.0073242142715797,5.96196455937559e-06
"11:76902682:G:A",-1.58537934442649e-05,-0.00359753851376254,-7.64356582738657e-06,8.21200237233199e-06,-0.00216505411164913,3.57674028412802e-05,-0.00147826765009818,7.22006821263221e-06,-3.95541241795527e-05,-1.03411766527728e-06,-1.23904191751123e-05,8.21200237233199e-06,4.04835029561568e-05,-0.000133596201326469,4.7705200363346e-05,-0.00216533095358962,-0.00185020621631082,-7.02319668217655e-05,-4.79940614086516e-05,6.45763015061362e-05,8.21200237233199e-06,-0.0018087398833293,5.25438690157642e-05,1.8486480030333e-05,-1.70102532965899e-05,-2.70497995522589e-05,4.34236562938395e-05,-0.00222467351244759,-0.000948087326881897,3.28369880531199e-05,2.70220775657748e-05,-0.00208152652897109,4.12331363497387e-05,2.70220775657748e-05,-0.00148221777795765,-0.00130767432401058,-8.47754605306505e-05,-0.00155189187872651,-0.0014379102910933,2.20522446729987e-05,6.47110524729655e-05,5.19554885158868e-06,-2.08204868901163e-06,0.0359481744965535,-2.08204868901163e-06,2.70220775657748e-05,-0.00180238268688715,5.19554885158868e-06,-2.88783458888275e-05,3.97238177995973e-05,-1.46692046607555e-05,-0.00493194863822044,3.57674028421684e-05,3.8173484258941e-05,-0.00103023457902918,-0.0027354601160452,-0.00154498204157427
"11:76902853:A:G",-1.67862223765525e-06,-1.18867816070178e-05,-0.0028267422923669,9.23086590276512e-07,1.74119570317544e-06,3.76162294557503e-06,-0.00294178047168625,8.20164050452377e-07,-4.74322883015077e-06,-1.11335618946384e-07,-0.00035013852778043,9.23086590276512e-07,4.1776230590429e-06,-1.79255592627214e-05,4.84781513776511e-06,3.37892803781159e-06,-0.0034122634402225,-8.8017817176933e-06,-5.79260678890137e-06,6.27227680194409e-06,9.23086590276512e-07,-1.10784490470195e-05,5.24190985551343e-06,2.01919550146812e-06,-1.94521041230189e-06,-3.11031359601088e-06,4.43168471608857e-06,2.38213006475974e-06,-0.00223670178852231,-1.88689571700706e-06,2.89990732049716e-06,-8.64682429391195e-06,4.24279011834727e-06,2.89990732049716e-06,-1.81071460492177e-06,-6.55641697200338e-06,-1.08361134527613e-05,-0.0039444200869676,6.0071231366976e-06,2.36814160015086e-06,-7.26551207197446e-06,6.08901212117985e-07,-2.24571349960456e-07,-2.08204868901163e-06,0.0255171438910891,2.89990732049716e-06,-3.28813134498063e-06,6.08901212117985e-07,-3.39048759645522e-06,4.11131189714808e-06,-1.67850808363568e-06,-0.00220003834329052,3.76162294557503e-06,3.97514868755167e-06,-0.00371012547221383,-9.46711345584106e-06,-0.00384695370970345
"11:76904713:T:A",-0.00263435024839964,-0.000136574040811244,-0.00276474533580107,-1.40365615379778e-05,-2.75091294383856e-05,-0.00138284211071582,0.000170421531470843,-1.26245267093594e-05,-0.00118943976893338,1.44279161595762e-06,1.92428818337476e-05,-1.40365615379778e-05,-0.00399574410064396,-0.00105169100822433,-0.00118182034780823,-0.00294784721944996,-0.00286548637192618,9.85772585604394e-05,-0.00452484724834878,-0.0025155716045413,-1.40365615379778e-05,0.000118336681143028,-9.35782441908728e-05,-3.15905477474843e-05,2.54354864903661e-05,-0.00193021153016915,-7.55592284313877e-05,-0.004328173712838,-0.00295586579679163,-0.000144452577654164,-0.00292256359439591,-0.00240446234307834,-0.00441120651748239,-0.00127389660109944,2.38644907080143e-05,7.61857129196741e-05,0.000116407117092265,-9.14682210293449e-05,-0.000112447546737116,-3.68389953875337e-05,-0.00229766708762469,-9.75683838255748e-06,2.89990731960899e-06,2.70220775657748e-05,2.89990732049716e-06,0.0656729371917164,-0.00050557235089066,-9.75683838255748e-06,-0.00275997919929249,-6.98350698256078e-05,2.23088689157436e-05,-0.000517574027564027,-0.00656011311446125,-0.00326593715678314,0.000104229963889146,-0.00228902379439955,-0.000111478187556635
"11:76906326:G:A",-0.00170177839808661,-0.0118335395058375,-0.0091933929680752,-0.00621949141454525,-0.00241265520028477,-0.00261156509961857,-0.00208795932587735,-0.0037228917787866,-0.00157721505163178,-6.35761385847644e-06,-6.69753377691151e-05,-4.56206942169857e-05,-0.0012931647495229,7.40556397609282e-05,-0.00165250544623685,-0.000569695938783976,-0.00809569521335884,-0.000328489569177748,-0.00603561516652773,-0.00762104123242668,-4.56206942169857e-05,-0.000830079386698657,-0.00534819785968299,-0.00220585101317283,-0.006532058473117,-0.0045938725329453,-1.46251731356628e-05,-0.00503083497005896,-0.00334109678178329,-0.000907857752441732,-3.5432748397568e-06,-0.00342121330449485,-0.00524547289594501,-0.000535388473405618,-0.00378299577600849,-0.00032870160251175,-0.000518956501323942,-0.000869039469856503,-0.0010341392130977,-3.42818019323232e-05,-0.00575668830425879,-0.0030545483682074,-0.00402836805755946,-0.00180238268688715,-3.28813134498063e-06,-0.00050557235089066,0.152592220093162,-0.000874958070668619,-4.09278131083823e-05,-0.00332650786182498,-0.00389099087870015,-0.0077091362540167,-0.000777173396928177,-0.00111441641883747,-0.00361457192499337,-0.000647458872361728,-0.00381980968704276
"11:76909397:C:T",-0.000969286122462165,-0.00233932607523446,-0.00276687859821223,-0.00173525275263842,-5.46689221891938e-06,-0.00163323736125331,-0.0018234482024031,-0.0023869173349409,1.04394501585503e-05,3.03720501193538e-07,3.68764713076786e-06,-2.75352025891351e-06,-1.52912552575657e-05,-5.51215222035495e-05,-0.0014154146238532,-1.1815715053487e-05,-0.000681440443105252,1.61193322991693e-05,-0.00262197926298846,-0.00127320508903495,-2.75352025891351e-06,1.83949455729859e-05,-2.07886683698533e-05,-0.00305839751151282,4.89185215091226e-06,-0.00226148954309391,-1.64825608539587e-05,-0.00169658218787117,-0.00166842600071249,-0.00180203393982481,-9.75683838255748e-06,-0.00948416706122135,-0.00105247715569146,-9.75683838255748e-06,4.58918955814624e-06,1.32345010612767e-05,1.81810584507502e-05,-2.02089786220938e-05,-0.00724910133660561,-7.64670092756603e-06,-0.00454594757748605,-1.81421606360033e-06,6.08901212117985e-07,5.19554885158868e-06,6.08901212117985e-07,-9.75683838255748e-06,-0.000874958070668619,0.0568211619462478,7.95220988525358e-06,-1.49875581829662e-05,4.2875859094238e-06,-0.00267278607515919,-1.34328062051381e-05,-1.43729731592046e-05,1.68359978287569e-05,-0.000676359719142816,-2.51733401306353e-05
"11:76911747:T:A",-2.62470364464917e-05,-0.000852226273691414,-0.0026539815751363,1.29123543040066e-05,2.46846678084722e-05,5.71918669658444e-05,-0.000208270470517746,1.12795477154037e-05,-6.17052639553251e-05,-1.6848761470456e-06,-1.95545265011532e-05,1.29123543040066e-05,6.52853151565935e-05,-0.00049882085336872,-0.00259648360937081,4.99538157079371e-05,0.000137410581168673,-0.000108224184548256,-7.48671806620749e-05,0.000105018209725749,1.29123543040066e-05,-0.000132509550603288,8.54800738778749e-05,2.93542092038024e-05,-2.6966789422822e-05,-4.29659664327176e-05,7.03545029221431e-05,3.38897982015141e-05,-0.00161037481582582,5.13455312276534e-05,-0.00275997919929249,-0.00011703546273889,6.65760424416462e-05,-0.00193522946360591,-2.50790646072474e-05,-8.4225805435878e-05,-0.000129861405859799,8.31380713437468e-05,0.000100913103382894,3.53159438661876e-05,-0.00125793150856257,7.95220988525358e-06,-3.39048759556704e-06,-2.88783458888275e-05,-3.39048759645522e-06,-0.00275997919929249,-4.09278131083823e-05,7.95220988525358e-06,0.0212769220444855,6.39784817764166e-05,-2.32147307421826e-05,-0.000326604683319687,-0.00274595291394419,6.13152793702554e-05,-0.000115783681881254,-0.00129153468202237,9.98333390933581e-05
"11:76916645:G:A",-0.000455542546189847,0.000185473490766697,-0.000580899976118765,-0.00119605325234406,-4.11438345224724e-05,-9.40674941860564e-05,-3.58507166922095e-05,-0.00159386548978624,8.75711553973701e-05,2.04477934051539e-06,2.85419301508938e-05,-2.09964302131382e-05,-0.000103810221548706,-0.00163937816271265,-0.000125743818405688,-0.00116473505690973,-0.000402779635072292,0.000149246572789252,-0.00197339379973105,-0.000925037560965514,-2.09964302131382e-05,0.000180245130759538,-0.000296373742190603,-4.68060681440008e-05,3.74395664906046e-05,5.64284230524237e-05,-0.000109951007758013,-0.000368155175358709,-0.000104641625274127,-0.00274191064023466,-6.98350698256078e-05,-0.00555973077749439,-0.000105370966004159,-6.98350698256078e-05,3.51796316273578e-05,0.000113781480401087,0.000177278139132042,-0.000133038156326926,-0.000162759996117146,-5.40724595605724e-05,-0.000158048355437757,-1.49875581829662e-05,4.11131189803626e-06,3.97238177995973e-05,4.11131189714808e-06,-6.98350698256078e-05,-0.00332650786182498,-1.49875581829662e-05,6.39784817764166e-05,0.0279025188670685,3.29436296953034e-05,-0.0037344253115803,-9.40674941860564e-05,-9.90217482925715e-05,0.000157828988022857,-0.00138829835996113,-0.000161492210865255
"11:76918317:C:T",-0.00316810386515076,-0.000224606505560665,7.06149361153763e-05,6.73373931014964e-06,1.29089756910616e-05,2.96461478273002e-05,-0.00374323670010046,5.92856880921033e-06,-3.16986859383306e-05,-8.34084366907462e-07,-1.00344951761144e-05,6.73373931014964e-06,3.35784836584807e-05,-0.000103630594074033,3.97264571754263e-05,2.61282815969821e-05,-2.12235745413736e-05,-5.56727441489713e-05,-3.82893261425821e-05,-0.00255375544009873,6.73373931014964e-06,-0.00026306165173029,4.38104610180901e-05,1.52015690160212e-05,-0.00380794760942749,-2.16761173232882e-05,3.60407295865173e-05,1.7838336876963e-05,-0.00187269031332971,-0.00306204296387325,2.23088689157436e-05,-0.00160792363657603,3.42054778990075e-05,2.23088689157436e-05,-1.27803761511558e-05,-0.0011460468607094,-6.68874770983763e-05,4.26798630606129e-05,5.17214553177325e-05,1.81278282092023e-05,-0.00144659872874886,4.2875859094238e-06,-1.67850808363568e-06,-1.46692046607555e-05,-1.67850808363568e-06,2.23088689157436e-05,-0.00389099087870015,4.2875859094238e-06,-2.32147307421826e-05,3.29436296953034e-05,0.0325677662734867,-0.00456839009848764,2.96461478273002e-05,3.16497465098209e-05,-5.94826548860894e-05,-0.00146822388952028,5.12038575575247e-05
"11:76921333:A:G",-0.00256259680750048,-0.0189566581895022,-0.015657588422282,-0.0014590112646431,-0.00209479324063722,-0.00168873036183514,-0.004775435711732,-2.40660928190195e-05,-0.00147342536850381,-1.36276041740047e-06,-1.93866217896854e-05,-0.00373553435676399,-0.00585518300024912,-0.00333276326320897,-0.000882128166168172,-0.00574195094715879,-0.00214668256699424,-0.00663711299365044,-0.00544681914340073,-0.0034382986907131,-0.00373553435676399,-0.00225498593296702,-0.00246355756008576,-0.000439004118047315,-0.00347430723923114,-0.00055501669721103,0.000212094192954204,-0.00399601356048729,-0.0127364103397238,-0.00331151147355468,-2.27039329634415e-05,-0.0039902380229635,-0.00402719086467318,4.7997414192924e-05,-0.00196628933486931,-0.00358312484818857,-0.00028875179412946,-0.000139519315268011,-0.00190421214394032,1.60067913714812e-05,-0.000794450279423486,-0.00334114588871781,-0.00718046445119747,-0.00493194863822044,-0.00220003834329052,-0.000517574027564027,-0.0077091362540167,-0.00267278607515919,-0.000326604683319687,-0.0037344253115803,-0.00456839009848764,0.179177164526042,-0.000865673332167027,0.000283915922603128,-0.003684969813051,-0.00161134641211236,-0.000780325733818366
"11:76922868:C:T",-0.00858797837146952,-0.00361548119486432,0.000192249912993603,-1.89758931270489e-05,-3.73081662434771e-05,-0.00292940519508722,0.000224415685360135,-1.71471198138207e-05,7.78090272444132e-05,1.87148827368588e-06,2.56644118410421e-05,-1.89758931270489e-05,-0.000964942139565217,-0.00647998898151858,-0.000348895654039616,-2.99661157372455e-05,-0.00109723666856087,0.000130848874960954,-0.00191982826942994,-0.00520142780490485,-1.89758931270489e-05,-0.0012689835425217,-0.000125831452772118,-0.00335170595104017,3.37067859756957e-05,-0.00414577151668549,-0.000101409648416428,-0.00016948168904829,-0.00437402313121815,-0.000827028521192652,-0.00372353174393858,-4.20119475776914e-05,-9.70516198144367e-05,-0.00275274137497306,3.16664635091612e-05,-0.00686257161802928,0.000154394755604415,-0.000123140101472075,-0.00015144846127324,-4.93639334395723e-05,-0.00220567206215883,-0.00561655401958205,3.76162294646321e-06,3.57674028421684e-05,3.76162294557503e-06,-0.00656011311446125,-0.000777173396928177,-1.34328062051381e-05,-0.00274595291394419,-9.40674941860564e-05,2.96461478273002e-05,-0.000865673332167027,0.082248448454143,-9.10179567288338e-05,0.000138192578222451,-0.00475969724676784,-0.000150221277531948
"11:76924766:G:A",-0.0026378754938392,-0.000344021381012638,-0.00721688382861796,-0.00328400200167955,-3.96328602310092e-05,-1.81002663470764e-05,-0.00445889866510907,-1.827870603055e-05,8.37376595290706e-05,1.97729713136141e-06,2.7411560169277e-05,-0.00144529958624595,-0.000598391571899448,-0.000438747855375787,-0.00120944611688056,-0.0030224825129368,-0.000181477560486254,0.000142024947296981,-0.00451245253645904,-0.000452341717520177,-0.00144529958624595,-0.00335093954577825,-0.000131907558369448,-4.51442641207223e-05,3.59762549209108e-05,-0.000546892571153812,-0.000106594118219228,-0.00295180991210664,-0.00299640853809713,-9.2336042571084e-05,-0.00326593715678314,-0.00301788630680333,-0.00010210049037962,-6.74582584343497e-05,-0.00235391127380602,0.00010870557597098,-0.00119776087692625,-0.000129147337410096,-0.000158314057341791,-5.22218068983449e-05,-0.00170025519798411,-1.43729731592046e-05,-0.00210126720599924,3.8173484258941e-05,3.97514868755167e-06,-0.00326593715678314,-0.00111441641883747,-1.43729731592046e-05,6.13152793702554e-05,-9.90217482925715e-05,3.16497465098209e-05,0.000283915922603128,-9.10179567288338e-05,0.0623716726595518,-0.00265952996994923,-8.2879508238598e-05,-0.000157062064752189
"11:76925641:C:T",-6.70280762289366e-05,-0.0027454376464684,-0.000136411627346789,3.07930606986417e-05,5.82082433897568e-05,-0.00145449607403947,-0.00322437408452814,2.61993464478749e-05,-0.00015594713191458,-4.70413127295899e-06,-4.93273280293138e-05,3.07930606986417e-05,0.000161608015678105,-0.00113812982751327,0.000188591164032026,-0.0028149558605044,-0.00268117480136798,-0.00486841909401914,-0.000192078894070136,-0.00199330185480484,3.07930606986417e-05,-0.000335310927694898,0.000213347594671731,-0.00189646537358534,-6.98958464280253e-05,-0.00214410891031314,-0.00108915928842368,7.80187218776263e-05,-0.000177272101590908,0.000113236991976962,0.000104229963889146,-0.00412209338077929,0.000165339782864038,0.000104229963889146,-6.46564101245417e-05,-0.000217788566548194,-0.00032813985761404,-0.00255166289695996,0.000251255508714188,8.83592905918107e-05,-0.00121123911038179,1.68359978287569e-05,-9.46685575797801e-06,-0.00103023457902918,-0.00371012547221383,0.000104229963889146,-0.00361457192499337,1.68359978287569e-05,-0.000115783681881254,0.000157828988022857,-5.94826548860894e-05,-0.003684969813051,0.000138192578222451,-0.00265952996994923,0.0503490458263061,-0.0012875463954094,-0.000522682672492891
"11:76926245:C:T",-0.00371645655875774,-0.0240915793485921,-0.00469460475187145,3.04297442612622e-05,-0.00188563540641873,-0.000714421207741012,-0.00481783469054786,-0.00188024395592201,-0.000603832374585167,-4.69421881543752e-06,-4.99560398923293e-05,-0.00242411478997173,-0.00024334847672236,-0.00223297858707383,-0.000369186241917951,-0.00292959608899945,-0.00251639369651491,-0.0009464753633317,-0.000292469971046927,-0.0015424983978134,-0.00242411478997173,-0.00187604652007511,-0.00757687123007322,6.96791900649529e-05,-0.00160192742695831,-0.000778064238525999,-7.83120094185463e-05,-0.000441863187105263,-0.0087569654766444,-0.00143861696427994,-0.00228902379439955,-0.00126863365701224,-0.00114887712929512,-0.0010325733833465,-0.00705358948660884,-0.00307988413744287,-0.00570629157717395,-6.37981237838758e-05,-5.91244566940929e-05,-0.000175510869695472,-0.00212446872421168,-0.00208280585933451,-0.0073242142715797,-0.0027354601160452,-9.46711345584106e-06,-0.00228902379439955,-0.000647458872361728,-0.000676359719142816,-0.00129153468202237,-0.00138829835996113,-0.00146822388952028,-0.00161134641211236,-0.00475969724676784,-8.2879508238598e-05,-0.0012875463954094,0.133416632061034,-0.00093154740575585
"11:76926301:C:T",-0.00113495226130311,-0.00116473807863704,-0.000378177694462245,-3.38075766865842e-05,-6.65374205350844e-05,-0.000990221750011067,-0.00264696385901342,-3.09615452920298e-05,0.000137575577036309,2.96477193284517e-06,-0.00139640093518079,-3.38075766865842e-05,-0.000556000497669018,-0.00251479976971591,-0.00440114520750079,-0.000138266848693114,-0.00203512242388104,-0.0030536823387326,0.000160506914491876,0.00011813292413354,-3.38075766865842e-05,0.000284371804966099,-0.000153224284777487,-7.45821458991713e-05,5.77895125122296e-05,-0.00140427597534742,-0.00017213660014459,-0.00100455473264471,-0.000170656768848865,-0.00375917585293006,-0.000111478187556635,-0.000358558804902209,-0.000165822178617603,-0.000111478187556635,-0.00186340334942514,0.000176667894655758,-0.00195781521057281,0.00226780205386401,-0.000418842005085907,-8.48966607458479e-05,-0.00267207904362188,-2.51733401306353e-05,5.96196455937559e-06,-0.00154498204157427,-0.00384695370970345,-0.000111478187556635,-0.00381980968704276,-2.51733401306353e-05,9.98333390933581e-05,-0.000161492210865255,5.12038575575247e-05,-0.000780325733818366,-0.000150221277531948,-0.000157062064752189,-0.000522682672492891,-0.00093154740575585,0.043806464405916
