"","2:128294601:T:G","2:128295319:A:C","2:128296831:A:G","2:128300170:C:T","2:128300679:C:A","2:128308442:T:A","2:128321770:G:A","2:128329596:A:G","2:128331479:G:A","2:128334850:C:G","2:128335271:C:T","2:128336267:A:G","2:128338088:C:T","2:128340277:T:C","2:128342690:C:T","2:128348191:A:C","2:128349998:A:T","2:128350062:G:A","2:128353705:A:T","2:128354379:G:A","2:128356334:C:T","2:128361381:G:A","2:128364132:C:G","2:128368724:C:T","2:128374222:A:G","2:128375171:A:G","2:128377048:C:T","2:128379340:A:G","2:128385340:C:A","2:128387261:G:A","2:128388437:A:C","2:128393390:G:A"
"2:128294601:T:G",0.0407226493002559,-0.000775467797351936,-0.00273462536480906,3.12214990252357e-05,-0.00010538000778304,6.86333032513531e-05,0.000241618544346345,8.36414689864284e-06,-0.00177513643501204,-0.00462008703314964,-0.0047670505170716,-0.00372156603401574,-3.14580076610227e-05,0.000139221047400717,4.96383019310542e-06,4.96383019310542e-06,-0.00112693577897094,6.65467978144818e-06,-0.0060038738933379,-0.000899243439957509,-0.00157864329763679,-7.05605865807257e-05,-0.000262056694823265,-5.49419505544435e-05,-8.22155134025948e-05,-0.00394843605548711,-0.000644225513759977,-0.00176092650101456,-0.0017142273847357,4.63402151753556e-05,-0.00460941276410942,1.18401747037922e-05
"2:128295319:A:C",-0.000775467797351936,0.100950516667483,-0.00917141038165603,-0.000410127049469189,-0.00206313966878469,-0.00130676751746783,-0.0103835207061431,-0.000170867306747979,-0.0105020707857522,-0.000775467797351936,-0.000749710343613597,-0.00319129084607095,-0.00200651835674392,-0.00333215343499305,-0.00446591452378975,-0.00245629666398983,7.91092836220919e-05,-0.00106690983930502,-0.00550658636193502,-0.00060418204977486,-0.00570927579031988,-0.00176259461382111,-0.00187195218479452,-0.00138086026641648,-0.00418147379874778,-0.00472135462895951,-0.00610626994544727,-0.00602411731504349,-0.00540807048144964,-0.000882082288343966,-0.000319091680378136,-0.0037240815264421
"2:128296831:A:G",-0.00273462536480906,-0.00917141038165603,0.0830206739702244,-4.13488405168749e-05,-0.00055489643633333,-0.000591229802590298,-0.0115124779495592,1.61881284963528e-05,-0.00186806288029295,-0.00273462536480906,-4.83606834897898e-05,-0.00702478082770419,3.28488685852335e-05,-0.00620974541391028,-0.00204396232132797,-7.2994115747349e-06,-0.00207437661287635,-9.81291085278002e-06,-0.00961591678273344,-0.00180198946738841,-0.00436164353174995,-0.00115854740693067,-0.000849956358543125,-0.00358382017930836,-0.00098531408928082,-0.011138561194354,-0.000510610347023821,-0.00123671728472274,-0.000425279333800432,-0.000813347586447577,5.66156382744154e-05,-1.76078409941383e-05
"2:128300170:C:T",3.12214990252357e-05,-0.000410127049469189,-4.13488405168749e-05,0.0190905203298435,5.31991674774801e-05,-3.95541241795527e-05,5.23783706807279e-05,-5.31148930882352e-06,3.65804656370372e-05,-0.00387326706152713,-0.00232604454688268,-0.000674739287792825,1.56838552305416e-05,-0.00126850358365882,-3.14406621626517e-06,-3.14406621626517e-06,-0.000644615909568991,-4.22045053483089e-06,-0.00310586029021476,-0.00216563306981321,-0.000156621538093482,3.49430009993767e-05,0.000110950143362487,-0.00200548634835851,4.19729134923941e-05,-0.00158955556879548,1.93957690086677e-05,-0.000971274789752563,-0.000191516546931503,-2.63602453181022e-05,2.70220775657748e-05,-7.53871917336113e-06
"2:128300679:C:A",-0.00010538000778304,-0.00206313966878469,-0.00055489643633333,5.31991674774801e-05,0.0219389234434288,0.000119371930027867,-0.00292753001155432,1.34598009671194e-05,-0.000129215864140164,-0.00010538000778304,-8.7853935911042e-05,-0.00032560638252388,-5.63497093768461e-05,0.000241260469231896,7.98584106576072e-06,7.98584106576072e-06,-0.010245339701898,1.07074779984728e-05,-0.00369421925554292,-0.000125070345452727,0.000414039491582585,-0.00017706063741052,-0.000415339339145504,-9.68186070364752e-05,0.000506829964231237,-0.00411839878559572,-6.58300346687568e-05,0.00174999274296272,0.000496655562879589,8.03990098141583e-05,-0.000366440615935382,1.90586041428631e-05
"2:128308442:T:A",6.86333032513531e-05,-0.00130676751746783,-0.000591229802590298,-3.95541241795527e-05,0.000119371930027867,0.00615841988430343,-0.00041521375173037,-1.20715226259449e-05,-0.0011640574085181,6.86333032513531e-05,5.20849899317e-05,-0.000302363655107385,3.32526949335943e-05,-0.000245247933549742,-7.15702741782565e-06,-7.15702741782565e-06,0.000236939496088162,-9.59961935098619e-06,-0.00138330958138244,7.57834649078859e-05,-0.000312143547922972,7.57834649069977e-05,0.000262254158421626,6.05593763340906e-05,9.31514437487735e-05,-0.000450561505536129,4.2017981439102e-05,-0.000708241713100577,-0.000374671852919839,0.0010147990383329,-0.00101523154103322,-1.71053980277946e-05
"2:128321770:G:A",0.000241618544346345,-0.0103835207061431,-0.0115124779495592,5.23783706807279e-05,-0.00292753001155432,-0.00041521375173037,0.103860139399776,-0.00561322311734269,-0.00722948428583337,-0.00329639854324792,-0.00376771163552281,-0.00523596442645768,-0.0085442911818383,-0.000849347843088655,-0.000941374268914608,-0.00197330608951685,-0.00084690642413765,-0.00120664412836735,-0.00109597909679238,-0.000371283276788148,-0.00535026650464765,-0.006516824117341,-0.000382997406889629,0.000191473050802582,-0.00537328293852735,0.000231206148639806,0.000132228239709598,-0.00765255198369141,-0.00419942966288245,0.000194185755512777,-9.88666434555974e-05,-0.00911835351519708
"2:128329596:A:G",8.36414689864284e-06,-0.000170867306747979,1.61881284963528e-05,-5.31148930882352e-06,1.34598009671194e-05,-1.20715226259449e-05,-0.00561322311734269,0.0197505822526836,9.73282931582276e-06,8.36414689864284e-06,6.71215514991275e-06,-0.000976117384356101,4.41120369920611e-06,-2.78222711775911e-05,-0.00224701271889138,-8.71670333246755e-07,2.18739014226088e-05,-1.17236798580223e-06,-0.000377422623019541,-0.00190357746100833,-0.001480278073279,-0.00269383839779547,-0.0010818863796711,7.56741735408184e-06,1.09468830293835e-05,-0.00177733032178029,5.35469331097715e-06,-0.000124643861547646,-0.00136749396839431,-7.8693623493109e-06,7.35930696116327e-06,-2.10656857291269e-06
"2:128331479:G:A",-0.00177513643501204,-0.0105020707857522,-0.00186806288029295,3.65804656370372e-05,-0.000129215864140164,-0.0011640574085181,-0.00722948428583337,9.73282931582276e-06,0.0661584863760187,-0.00177513643501204,-0.00122567387720451,-0.00589054460433047,-3.80909817927488e-05,-0.00214704244456954,5.78034733766941e-06,5.78034733855759e-06,-0.00144618135407892,7.7464989116649e-06,-0.00781715600772648,-8.62803713914673e-05,0.000260430526881628,-0.00119435167824644,-0.000306669962196082,-0.0026077075700961,-0.000100237909871126,-0.012461619834089,0.000416863153139602,-0.00346731064724537,-0.0021767515103166,-0.00144135573970416,-6.50292108126393e-05,1.37672536517641e-05
"2:128334850:C:G",-0.00462008703314964,-0.000775467797351936,-0.00273462536480906,-0.00387326706152713,-0.00010538000778304,6.86333032513531e-05,-0.00329639854324792,8.36414689864284e-06,-0.00177513643501204,0.0429893277965006,-4.91949713250506e-05,-0.0110848851854941,-3.14580076610227e-05,0.000139221047400717,4.96383019310542e-06,4.96383019310542e-06,0.00153460615084899,6.65467978144818e-06,-0.0060038738933379,-0.000899243439957509,-0.00157864329763679,-7.05605865807257e-05,-0.000262056694823265,-5.49419505544435e-05,-8.22155134025948e-05,-0.00394843605548711,-0.000644225513759977,-0.00115706074732547,-0.0017142273847357,4.63402151753556e-05,-5.35296899846216e-05,1.18401747037922e-05
"2:128335271:C:T",-0.0047670505170716,-0.000749710343613597,-4.83606834897898e-05,-0.00232604454688268,-8.7853935911042e-05,5.20849899317e-05,-0.00376771163552281,6.71215514991275e-06,-0.00122567387720451,-4.91949713250506e-05,0.0280943465120425,-0.00350064466264222,-2.50450348024955e-05,-9.84880370538121e-05,3.99027439623723e-06,3.9902743971254e-06,-0.0007046601702001,5.34493958337379e-06,0.000125346225297474,1.40649001068027e-06,-0.0021486317517434,-5.75291244802045e-05,-0.00138656915608326,-4.4485766442115e-05,-6.77108053270814e-05,-0.000282671621239849,-3.0075946105157e-05,-0.001616695541788,-0.00230689281058361,3.56525764111382e-05,-0.00304665838389173,9.4848861840191e-06
"2:128336267:A:G",-0.00372156603401574,-0.00319129084607095,-0.00702478082770419,-0.000674739287792825,-0.00032560638252388,-0.000302363655107385,-0.00523596442645768,-0.000976117384356101,-0.00589054460433047,-0.0110848851854941,-0.00350064466264222,0.101762359626404,-0.0129677663469066,-0.000621795752315357,-0.00250564368937756,-0.00235991530671864,-0.00219728794946228,-0.00237844662139608,-0.0091190302710995,-0.000787195065717228,-0.000827005560718241,-0.00366507950705941,-0.00279313088064992,-0.000717676970571901,-0.000852833796260555,-0.00650505301061255,-0.00154273237310054,0.000741502422713314,-0.000424227959081591,-0.000199370868158688,0.000131668665139806,-0.0102428354885546
"2:128338088:C:T",-3.14580076610227e-05,-0.00200651835674392,3.28488685852335e-05,1.56838552305416e-05,-5.63497093768461e-05,3.32526949335943e-05,-0.0085442911818383,4.41120369920611e-06,-3.80909817927488e-05,-3.14580076610227e-05,-2.50450348024955e-05,-0.0129677663469066,0.0498941368405763,6.45644826784419e-05,2.62334352107985e-06,2.62334352019167e-06,-0.000122486251510345,3.51331481862616e-06,-0.0039993827408713,-3.65172755945053e-05,-0.00512370143586249,-3.65172755953935e-05,-0.000137846719147738,-0.00314235700178767,-4.33542886852933e-05,-0.00197337651988239,-1.91662664814629e-05,-0.00275375040155357,-0.00548252402284799,2.27971278032868e-05,-2.75091294366092e-05,-0.00347698811932684
"2:128340277:T:C",0.000139221047400717,-0.00333215343499305,-0.00620974541391028,-0.00126850358365882,0.000241260469231896,-0.000245247933549742,-0.000849347843088655,-2.78222711775911e-05,-0.00214704244456954,0.000139221047400717,-9.84880370538121e-05,-0.000621795752315357,6.45644826784419e-05,0.0418681938744792,-1.64714443995351e-05,-0.00161848054335945,0.000467124256437579,-2.21088908212153e-05,-0.000481993781809464,-0.00366066400431286,-0.00789288321026405,-0.00210842715519188,0.000514874133494381,-0.00216719569535506,0.000188535047613847,-0.000797722870597983,-0.00214615682617048,0.00086430183763575,-0.00841236953590574,-0.000439213151078199,0.000116020620700041,-3.948299348977e-05
"2:128342690:C:T",4.96383019310542e-06,-0.00446591452378975,-0.00204396232132797,-3.14406621626517e-06,7.98584106576072e-06,-7.15702741782565e-06,-0.000941374268914608,-0.00224701271889138,5.78034733766941e-06,4.96383019310542e-06,3.99027439623723e-06,-0.00250564368937756,2.62334352107985e-06,-1.64714443995351e-05,0.0191084202491085,-5.14016636365966e-07,1.29769000620783e-05,-0.00253379064414894,-0.00065773002838565,5.55900344156868e-06,-0.000114687867923458,5.5590034406805e-06,1.36440477342958e-05,4.4941950987365e-06,6.49582044420782e-06,-0.000614917217534483,3.17945616767901e-06,-0.00156903156764798,-0.00146774889574441,-4.6654358438758e-06,4.37155594479322e-06,-1.24196394946097e-06
"2:128348191:A:C",4.96383019310542e-06,-0.00245629666398983,-7.2994115747349e-06,-3.14406621626517e-06,7.98584106576072e-06,-7.15702741782565e-06,-0.00197330608951685,-8.71670333246755e-07,5.78034733855759e-06,4.96383019310542e-06,3.9902743971254e-06,-0.00235991530671864,2.62334352019167e-06,-0.00161848054335945,-5.14016636365966e-07,0.0137762876487786,1.29769000629665e-05,-6.91299822719316e-07,-0.00260192176271445,5.55900344245686e-06,-3.24990706062067e-05,5.5590034406805e-06,1.36440477342958e-05,4.49419509962468e-06,6.49582044420782e-06,-0.00263384818192858,3.17945616856719e-06,-0.000119902032175823,-4.11205550214788e-05,-4.6654358438758e-06,4.37155594568139e-06,-1.24196394857279e-06
"2:128349998:A:T",-0.00112693577897094,7.91092836220919e-05,-0.00207437661287635,-0.000644615909568991,-0.010245339701898,0.000236939496088162,-0.00084690642413765,2.18739014226088e-05,-0.00144618135407892,0.00153460615084899,-0.0007046601702001,-0.00219728794946228,-0.000122486251510345,0.000467124256437579,1.29769000620783e-05,1.29769000629665e-05,0.0282553060868032,1.74002722488353e-05,-9.9073305277031e-05,-0.000922996431328649,-0.000148410567846646,-0.000268137467350549,-0.000706651232691868,-0.000695170649087196,-0.00669440319648196,0.000982991188974047,-0.00057413317674726,-0.00185904813350302,-0.000234244717456811,0.00015947244091663,-0.00020069324175509,3.09753947425051e-05
"2:128350062:G:A",6.65467978144818e-06,-0.00106690983930502,-9.81291085278002e-06,-4.22045053483089e-06,1.07074779984728e-05,-9.59961935098619e-06,-0.00120664412836735,-1.17236798580223e-06,7.7464989116649e-06,6.65467978144818e-06,5.34493958337379e-06,-0.00237844662139608,3.51331481862616e-06,-2.21088908212153e-05,-0.00253379064414894,-6.91299822719316e-07,1.74002722488353e-05,0.0141978693353453,-4.02991216787996e-05,-0.00194947516922017,-0.00151505537134433,7.44865024060459e-06,1.82951811700249e-05,6.02294197626918e-06,8.70903365690623e-06,-0.000671458902208322,4.26139990938879e-06,-0.00148944665447814,-0.00139942606323995,-6.25781156138316e-06,5.85795023866353e-06,-1.67048934418546e-06
"2:128353705:A:T",-0.0060038738933379,-0.00550658636193502,-0.00961591678273344,-0.00310586029021476,-0.00369421925554292,-0.00138330958138244,-0.00109597909679238,-0.000377422623019541,-0.00781715600772648,-0.0060038738933379,0.000125346225297474,-0.0091190302710995,-0.0039993827408713,-0.000481993781809464,-0.00065773002838565,-0.00260192176271445,-9.9073305277031e-05,-4.02991216787996e-05,0.0901266804217755,-0.000344455398152643,-0.000784756453064528,-0.00125841435975582,-0.000218503681973292,-9.94169751971086e-05,-0.000781830344782186,-0.00989117142866425,-0.00262999851136225,-0.00168208292770755,-0.00310930051156699,-0.000870057615224518,-9.54426247266049e-05,-0.00688296701703628
"2:128354379:G:A",-0.000899243439957509,-0.00060418204977486,-0.00180198946738841,-0.00216563306981321,-0.000125070345452727,7.57834649078859e-05,-0.000371283276788148,-0.00190357746100833,-8.62803713914673e-05,-0.000899243439957509,1.40649001068027e-06,-0.000787195065717228,-3.65172755945053e-05,-0.00366066400431286,5.55900344156868e-06,5.55900344245686e-06,-0.000922996431328649,-0.00194947516922017,-0.000344455398152643,0.0380217323365937,-0.00148845905448258,-0.00309390222676953,-0.000917731276786071,-0.00313162520355359,-9.67814133785438e-05,-0.000743681265200635,-4.34052555480235e-05,-0.0107180012064543,-0.00132099011899101,5.16579525609018e-05,-6.25462051049297e-05,1.32312411702529e-05
"2:128356334:C:T",-0.00157864329763679,-0.00570927579031988,-0.00436164353174995,-0.000156621538093482,0.000414039491582585,-0.000312143547922972,-0.00535026650464765,-0.001480278073279,0.000260430526881628,-0.00157864329763679,-0.0021486317517434,-0.000827005560718241,-0.00512370143586249,-0.00789288321026405,-0.000114687867923458,-3.24990706062067e-05,-0.000148410567846646,-0.00151505537134433,-0.000784756453064528,-0.00148845905448258,0.0482387531233162,-0.00176747670609156,-0.00236573353527092,0.00020017977348985,0.000322127482834667,0.000923222892653452,0.000141949113057649,-0.000973971551252895,0.00321894665544331,-0.000209540635753847,-0.00164800550292199,-0.00615131520282564
"2:128361381:G:A",-7.05605865807257e-05,-0.00176259461382111,-0.00115854740693067,3.49430009993767e-05,-0.00017706063741052,7.57834649069977e-05,-0.006516824117341,-0.00269383839779547,-0.00119435167824644,-7.05605865807257e-05,-5.75291244802045e-05,-0.00366507950705941,-3.65172755953935e-05,-0.00210842715519188,5.5590034406805e-06,5.5590034406805e-06,-0.000268137467350549,7.44865024060459e-06,-0.00125841435975582,-0.00309390222676953,-0.00176747670609156,0.0305266866384022,-0.000300659871386166,-0.00115695245356662,-0.000556611681675534,-0.000905208497861132,-4.34052555489117e-05,-0.000195655372413839,-0.00160000777059999,5.16579525600136e-05,-6.25462051067061e-05,1.32312411693647e-05
"2:128364132:C:G",-0.000262056694823265,-0.00187195218479452,-0.000849956358543125,0.000110950143362487,-0.000415339339145504,0.000262254158421626,-0.000382997406889629,-0.0010818863796711,-0.000306669962196082,-0.000262056694823265,-0.00138656915608326,-0.00279313088064992,-0.000137846719147738,0.000514874133494381,1.36440477342958e-05,1.36440477342958e-05,-0.000706651232691868,1.82951811700249e-05,-0.000218503681973292,-0.000917731276786071,-0.00236573353527092,-0.000300659871386166,0.0126223532873668,-0.000228034737557614,-0.00032662599869937,0.00107039442402668,-0.000153073593250674,0.00308336668935372,-0.0020580676021078,0.000176396984176819,-0.000893200209456602,3.25704191066478e-05
"2:128368724:C:T",-5.49419505544435e-05,-0.00138086026641648,-0.00358382017930836,-0.00200548634835851,-9.68186070364752e-05,6.05593763340906e-05,0.000191473050802582,7.56741735408184e-06,-0.0026077075700961,-5.49419505544435e-05,-4.4485766442115e-05,-0.000717676970571901,-0.00314235700178767,-0.00216719569535506,4.4941950987365e-06,4.49419509962468e-06,-0.000695170649087196,6.02294197626918e-06,-9.94169751971086e-05,-0.00313162520355359,0.00020017977348985,-0.00115695245356662,-0.000228034737557614,0.028989853887468,-7.51284679854081e-05,-0.00194544682087106,-0.00110401603905608,-0.0013866453014959,0.000235144838665491,4.11260322605855e-05,-0.00136073000282444,-0.00270145675087274
"2:128374222:A:G",-8.22155134025948e-05,-0.00418147379874778,-0.00098531408928082,4.19729134923941e-05,0.000506829964231237,9.31514437487735e-05,-0.00537328293852735,1.09468830293835e-05,-0.000100237909871126,-8.22155134025948e-05,-6.77108053270814e-05,-0.000852833796260555,-4.33542886852933e-05,0.000188535047613847,6.49582044420782e-06,6.49582044420782e-06,-0.00669440319648196,8.70903365690623e-06,-0.000781830344782186,-9.67814133785438e-05,0.000322127482834667,-0.000556611681675534,-0.00032662599869937,-7.51284679854081e-05,0.0196956003648561,-0.0011148976272839,-5.11486468717237e-05,0.000874624853172357,0.00038498796071007,6.28309228893897e-05,-0.000752740632660398,1.54981522006992e-05
"2:128375171:A:G",-0.00394843605548711,-0.00472135462895951,-0.011138561194354,-0.00158955556879548,-0.00411839878559572,-0.000450561505536129,0.000231206148639806,-0.00177733032178029,-0.012461619834089,-0.00394843605548711,-0.000282671621239849,-0.00650505301061255,-0.00197337651988239,-0.000797722870597983,-0.000614917217534483,-0.00263384818192858,0.000982991188974047,-0.000671458902208322,-0.00989117142866425,-0.000743681265200635,0.000923222892653452,-0.000905208497861132,0.00107039442402668,-0.00194544682087106,-0.0011148976272839,0.078818272195023,-0.00272415115064195,-0.000872604049638959,-0.000837494421106477,-0.000653932713046146,-0.000218097034788034,-0.004486099566126
"2:128377048:C:T",-0.000644225513759977,-0.00610626994544727,-0.000510610347023821,1.93957690086677e-05,-6.58300346687568e-05,4.2017981439102e-05,0.000132228239709598,5.35469331097715e-06,0.000416863153139602,-0.000644225513759977,-3.0075946105157e-05,-0.00154273237310054,-1.91662664814629e-05,-0.00214615682617048,3.17945616767901e-06,3.17945616856719e-06,-0.00057413317674726,4.26139990938879e-06,-0.00262999851136225,-4.34052555480235e-05,0.000141949113057649,-4.34052555489117e-05,-0.000153073593250674,-0.00110401603905608,-5.11486468717237e-05,-0.00272415115064195,0.0193910707164164,-0.00129761787062854,0.000167611435101023,2.84777748458254e-05,-3.29229653512897e-05,7.57604324963523e-06
"2:128379340:A:G",-0.00176092650101456,-0.00602411731504349,-0.00123671728472274,-0.000971274789752563,0.00174999274296272,-0.000708241713100577,-0.00765255198369141,-0.000124643861547646,-0.00346731064724537,-0.00115706074732547,-0.001616695541788,0.000741502422713314,-0.00275375040155357,0.00086430183763575,-0.00156903156764798,-0.000119902032175823,-0.00185904813350302,-0.00148944665447814,-0.00168208292770755,-0.0107180012064543,-0.000973971551252895,-0.000195655372413839,0.00308336668935372,-0.0013866453014959,0.000874624853172357,-0.000872604049638959,-0.00129761787062854,0.04768181385296,-0.000179452846566619,-0.00121396229726312,-0.00256391396036371,-0.00140097584042209
"2:128385340:C:A",-0.0017142273847357,-0.00540807048144964,-0.000425279333800432,-0.000191516546931503,0.000496655562879589,-0.000374671852919839,-0.00419942966288245,-0.00136749396839431,-0.0021767515103166,-0.0017142273847357,-0.00230689281058361,-0.000424227959081591,-0.00548252402284799,-0.00841236953590574,-0.00146774889574441,-4.11205550214788e-05,-0.000234244717456811,-0.00139942606323995,-0.00310930051156699,-0.00132099011899101,0.00321894665544331,-0.00160000777059999,-0.0020580676021078,0.000235144838665491,0.00038498796071007,-0.000837494421106477,0.000167611435101023,-0.000179452846566619,0.0501408301194131,-0.000252029089318206,-0.00140176270336134,-0.00654484882254636
"2:128387261:G:A",4.63402151753556e-05,-0.000882082288343966,-0.000813347586447577,-2.63602453181022e-05,8.03990098141583e-05,0.0010147990383329,0.000194185755512777,-7.8693623493109e-06,-0.00144135573970416,4.63402151753556e-05,3.56525764111382e-05,-0.000199370868158688,2.27971278032868e-05,-0.000439213151078199,-4.6654358438758e-06,-4.6654358438758e-06,0.00015947244091663,-6.25781156138316e-06,-0.000870057615224518,5.16579525609018e-05,-0.000209540635753847,5.16579525600136e-05,0.000176396984176819,4.11260322605855e-05,6.28309228893897e-05,-0.000653932713046146,2.84777748458254e-05,-0.00121396229726312,-0.000252029089318206,0.00630930171946442,-0.00128557405268648,-1.11513899581084e-05
"2:128388437:A:C",-0.00460941276410942,-0.000319091680378136,5.66156382744154e-05,2.70220775657748e-05,-0.000366440615935382,-0.00101523154103322,-9.88666434555974e-05,7.35930696116327e-06,-6.50292108126393e-05,-5.35296899846216e-05,-0.00304665838389173,0.000131668665139806,-2.75091294366092e-05,0.000116020620700041,4.37155594479322e-06,4.37155594568139e-06,-0.00020069324175509,5.85795023866353e-06,-9.54426247266049e-05,-6.25462051049297e-05,-0.00164800550292199,-6.25462051067061e-05,-0.000893200209456602,-0.00136073000282444,-0.000752740632660398,-0.000218097034788034,-3.29229653512897e-05,-0.00256391396036371,-0.00140176270336134,-0.00128557405268648,0.0198162498340229,1.04077953517745e-05
"2:128393390:G:A",1.18401747037922e-05,-0.0037240815264421,-1.76078409941383e-05,-7.53871917336113e-06,1.90586041428631e-05,-1.71053980277946e-05,-0.00911835351519708,-2.10656857291269e-06,1.37672536517641e-05,1.18401747037922e-05,9.4848861840191e-06,-0.0102428354885546,-0.00347698811932684,-3.948299348977e-05,-1.24196394946097e-06,-1.24196394857279e-06,3.09753947425051e-05,-1.67048934418546e-06,-0.00688296701703628,1.32312411702529e-05,-0.00615131520282564,1.32312411693647e-05,3.25704191066478e-05,-0.00270145675087274,1.54981522006992e-05,-0.004486099566126,7.57604324963523e-06,-0.00140097584042209,-0.00654484882254636,-1.11513899581084e-05,1.04077953517745e-05,0.054639587796431
