"","19:17195055:G:A","19:17196639:G:A","19:17197359:A:G","19:17198873:G:A","19:17199751:G:A","19:17201520:T:G","19:17202935:G:A","19:17205079:A:G","19:17205696:T:C","19:17207602:G:A","19:17207816:A:G","19:17209145:G:A","19:17209930:C:A","19:17212989:C:T","19:17214064:C:G","19:17214708:A:G","19:17215603:G:A","19:17219463:A:G","19:17219684:C:T","19:17220740:A:T","19:17221992:C:T","19:17222584:A:G","19:17223128:A:C","19:17223436:G:T","19:17224165:C:T","19:17224355:C:G","19:17224672:A:G","19:17224894:G:A","19:17225190:C:A","19:17225660:G:C","19:17226117:C:T","19:17229461:T:G","19:17229632:C:T","19:17230199:C:T","19:17230287:A:C","19:17230372:C:A","19:17231611:G:T","19:17232033:G:A","19:17233295:C:G","19:17235020:G:A","19:17235597:C:T","19:17240244:A:G","19:17246461:G:A","19:17247006:C:T","19:17248185:G:A","19:17249173:G:A","19:17252151:T:C","19:17252279:A:T","19:17258320:C:T","19:17263232:G:T","19:17264963:C:T","19:17265805:G:A","19:17268392:A:G","19:17271397:A:T","19:17271457:A:G","19:17271923:G:C","19:17272561:G:A","19:17272577:G:A","19:17279009:C:G","19:17280174:T:A","19:17281134:A:G","19:17281257:C:G","19:17282804:C:T","19:17283657:C:T","19:17285345:C:T","19:17285363:T:C","19:17285616:A:G","19:17285981:C:T","19:17286438:A:T","19:17286804:G:A","19:17287091:C:T","19:17290414:T:C","19:17290955:T:C","19:17293134:C:T","19:17294992:G:C","19:17295023:A:G","19:17295440:T:C","19:17297477:G:C","19:17298391:A:T","19:17299004:G:T","19:17300714:A:T","19:17301482:T:C","19:17301561:A:G","19:17301699:A:C","19:17301935:G:A","19:17307813:G:A","19:17309577:C:T","19:17309732:G:A","19:17312551:A:G","19:17315528:C:T","19:17315662:A:C","19:17316782:T:C","19:17318012:G:A","19:17319124:G:A","19:17323426:A:C"
"19:17195055:G:A",0.153050084862965,1.04253531363341e-05,-2.19680911817122e-05,1.00286335324995e-06,-8.92041729283477e-06,-0.00857390489707166,-1.37546089939988e-05,-1.7932573602053e-05,1.19399481404159e-05,2.49982571531859e-07,4.40545208579834e-06,-3.96502151911449e-06,-1.54592769314732e-05,-1.34850293571631e-05,-0.00014927889856331,-5.93570354823214e-06,1.00286335324995e-06,-0.00219912104967701,-2.19680911817122e-05,8.25441374896485e-06,-8.92041729372295e-06,-0.00195220587560119,-0.00340146827049725,4.40545208579834e-06,-5.12860881229926e-06,-0.00185801329549573,-0.00427907519618298,-3.86278855195599e-05,-0.00153963649188604,1.00930513138309e-05,-0.000231476015674303,-1.76140565955052e-06,-0.00201277827716861,-0.00110649892300252,-0.0059561668519601,-0.00073512395474129,-0.00602700721848404,8.18269929059312e-06,-0.000713628592494686,-0.00177170430800722,-0.0066894282538259,6.69193568292314e-06,-0.000276351948934384,-0.00167331882974509,-0.0016462209447603,-2.71961386690833e-05,-0.0076086003359106,-1.37546089939988e-05,-0.000838161781223867,-0.00760144664641693,-0.000312607332016768,-1.33953126804087e-05,-2.80794073237445e-06,-0.00143137288283501,-2.27475968621604e-05,-0.00146637315788922,-0.00179668091459551,-0.00171864497127139,-6.20222274161364e-06,8.09058333572921e-06,-0.000639234423061907,-0.000268653741546387,-0.000874572791692785,-0.000522971329807831,-2.80794073237445e-06,-0.00368958138149278,-0.00928087889801699,-3.06732684940414e-06,-0.00221217771671345,-0.000842808996355693,-0.00659042697738332,-0.00704431872864486,-0.000197764485481144,-5.93570354823214e-06,-0.00356110069169269,-0.000468178372952543,-0.00225847881582819,-0.00100365346646036,1.50688048705661e-06,-0.00291185865351373,-0.00322207241464501,-0.00643513032294063,-0.00570155312821985,-0.00354254201753834,-7.46082279778904e-06,-0.00167918531839284,-0.00010780888550066,-9.39881963457623e-06,-1.33953126804087e-05,-2.79363677746503e-05,-0.000863356484747335,-0.00659986758162656,-0.00245321686215494,7.42684527121895e-06,-0.00426214133888791
"19:17196639:G:A",1.04253531363341e-05,0.105172440918488,0.000191776509394614,-1.43331826381043e-05,-0.00131321525369454,-0.00376042973849522,0.000132026587905898,0.000164117687074139,-0.000221538242571206,-3.51791426389525e-06,1.75011014125204e-05,-0.00130418167040514,0.000139927708687537,0.000129287933932076,-0.000799087904043816,6.25987932254546e-05,-1.43331826381043e-05,-0.00246346285120858,0.000191776509394614,-0.00012496581321475,-0.00122802983854697,-3.59494160218077e-05,2.09732521714301e-05,1.75011014125204e-05,5.29684376076034e-05,-0.00336973770244331,-0.00127266791623892,-0.00550137423447161,5.62183040102582e-05,-0.000165369944530092,-8.51216320469916e-05,1.75011014125204e-05,-0.00229703955963423,-0.00227544590969142,-0.000627906005880696,-0.000348288684371312,-0.00108143924311133,-0.000129004638191432,0.000100263443318482,-0.00129940679383367,-0.00135030864802133,-0.00428064802103822,-0.00168216264520105,6.9380005048636e-05,-0.0014269888675198,0.000227121368792993,-0.00406972132149175,0.000132026587905898,-0.00245638345382204,-0.002867878306958,-0.00237659470924623,6.88250829199433e-05,3.11363763598749e-05,-0.00186436974949533,-0.00322519413414923,0.00014275444764511,-0.00117726889185299,4.29712896377055e-05,6.5730862318425e-05,-0.00625598038311104,-0.000332764258163643,-0.0025800194150456,-0.00105841041684762,-0.000682521571209627,3.11363763598749e-05,-0.000772301319675428,-0.00227772324977149,3.44421869211686e-05,-0.00449277503275525,-0.00108559618987059,-0.00236822496937794,-0.000605129739713384,-0.00298941812476716,6.25987932254546e-05,0.000126515393347404,-0.00126577975101672,-0.00391969683254434,-0.0025576167176844,-2.17694778026356e-05,-0.00205194897133509,-0.0024627351075317,-0.000837557114570231,-0.000872648826354627,-0.00158812790220697,7.2646977627322e-05,-0.00134665827760383,-0.0013503978526952,9.43906748096524e-05,6.88250829199433e-05,-0.00343121708326777,-0.000120599481260086,-0.00055678448936991,-0.00251276827139968,-0.000118856536818868,-0.000718412863669471
"19:17197359:A:G",-2.19680911817122e-05,0.000191776509394614,0.0911378843929875,1.19621748950749e-05,-0.000127012564031581,-0.000196249724601305,-0.000166645255844422,-0.000209539480382048,0.000240495178106315,2.94199448713783e-06,-2.77815811609017e-05,-0.000930442619660354,-0.000829395142062594,-0.0055563527571536,-0.00028358492456082,-7.90761531010986e-05,1.19621748950749e-05,-0.0021741658924137,0.00552482497037055,0.000139646796250226,-0.000127012564029805,-0.000292993662867502,-0.000602837890566477,-2.77815811609017e-05,-7.1254747829208e-05,-2.19680911817122e-05,-0.0030431129944537,-0.000393051031562841,-0.000736459329168326,0.000183840116459777,-0.0027426330818523,-0.000977783009572519,-0.00231662031750801,0.000291750789134237,-0.00106246582939118,-0.000260939724711307,-0.00388956278656405,-0.00126203554284832,-0.00012486092379671,-0.00399017835879523,-0.00108472393367887,0.000105818395406132,-0.00170848309483684,-0.000892837668883928,-0.00420573611150754,-0.000353753783435273,-0.000879034230956588,-0.000166645255844422,-0.000163738001407232,-0.00143255315684865,-0.00530594712518972,-8.41479207913665e-05,-0.000640911485645823,-0.00016020986858134,-0.000255236241666346,-0.000193684686454532,-0.0010506021053045,-0.00406219827214738,-8.16259744720327e-05,-0.000816661414928532,0.000358557053014685,-0.00364204323926742,-0.00296871921981978,-0.00223691129834425,-0.000640911485645823,0.000212393253734788,-0.0024332599498873,-4.17635048277631e-05,0.000212159346812513,-0.00297410993984215,-0.000633994683460593,-0.00108031826499211,-0.000813121042051002,-7.90761531010986e-05,0.000901019767534983,-0.00746696536458913,-0.00288560739735644,-0.000298820860144211,1.81428435341857e-05,-0.000205712462780561,-0.000311600769168585,0.00026527273963417,0.000368926570765815,-0.00325012221331011,-0.000102939937180579,-0.00112650721789542,-0.00149733423135068,-0.000464217010581081,-8.41479207913665e-05,-0.000301625080256329,0.000135971118108813,-0.00471459034949628,-0.000253583940534874,-0.00405423773907732,0.000331391076820786
"19:17198873:G:A",1.00286335324995e-06,-1.43331826381043e-05,1.19621748950749e-05,0.070394726650143,-0.00236535438247998,-0.00297427996058186,8.70903365690623e-06,1.04920334713654e-05,-1.87131661899542e-05,-2.26514956125357e-07,1.44049686667813e-06,2.98396133313616e-06,9.42230626232998e-06,-0.00134186264862191,-0.000243353921431044,4.44042057878846e-06,1.9912903341357e-05,1.32668716172901e-05,1.19621748950749e-05,-9.94031986323307e-06,-0.00228016896733152,1.35379065362429e-05,1.65363661164264e-06,1.44049686667813e-06,3.89390755106689e-06,1.00286335324995e-06,-9.25666874191933e-05,1.62726980379446e-05,4.07925330581094e-06,-1.3546913389284e-05,-6.55901922375079e-06,1.44049686667813e-06,1.25656731349011e-05,-0.00272369988498866,-0.00130876754357523,-3.1014033814003e-05,1.65413738626441e-05,-0.00257428989318775,6.80587809753774e-06,5.16767977121191e-06,-2.52102795039733e-05,-7.49452848403109e-06,-0.00152325428504607,5.16767977121191e-06,7.59892558566122e-06,1.35938548915249e-05,-0.00249999347357033,8.70903365690623e-06,5.75615668285678e-06,-4.30578340022691e-05,-0.00222290994424146,4.78936667658303e-06,2.27137522479381e-06,8.31103193466021e-06,1.22380341469608e-05,9.54992866475379e-06,-0.000708486780327533,3.31791029406503e-06,4.61638645976592e-06,-0.00200526478576357,-3.03063873179354e-05,-0.00467724323599583,-0.00175846377909039,-0.00200601629313013,2.27137522479381e-06,-0.000110360321353475,-0.00215630624412366,2.47033254652251e-06,-0.000776078568104133,-0.00177468706868744,-0.0031640306658538,-0.00211185097068878,-0.0018617905987286,4.44042057878846e-06,8.44602409610928e-06,-0.00517571798337624,-0.00183663343047424,1.36684466367498e-05,-0.00386954317907318,1.02689345808926e-05,-0.00117179246428911,-0.00144447572689543,-0.00146029943264558,-0.00329352224067314,5.34493958515014e-06,6.65434630864326e-06,-0.00181995256192025,6.50084938680351e-06,4.78936667658303e-06,1.38137212335465e-05,-9.59961935098619e-06,-0.000926772303161627,1.21476984293878e-05,-0.00239339197621558,-0.00188827589190321
"19:17199751:G:A",-8.92041729283477e-06,-0.00131321525369454,-0.000127012564031581,-0.00236535438247998,0.208490595489696,-0.000634913248187541,-8.20990921637232e-05,-0.000105016772356414,-0.00127150396405362,1.51706936435403e-06,-1.20173984443639e-05,-2.86389101562534e-05,-0.00293544074483876,-0.000970133181810162,-0.00457250719380387,-0.00396615872461581,-0.00236535438247998,-0.00224422051493711,-0.000127012564031581,-0.00347309933873774,-0.00207535970729644,-0.000254795291414034,-0.00334056887004941,-1.20173984443639e-05,-0.00319576051901738,-8.92041729283477e-06,-3.54985226529436e-05,-0.00434138184695065,-3.43621837490815e-05,7.71698833545997e-05,-0.00342125159151507,-1.20173984443639e-05,-0.00197689415462765,-0.00537361563794514,6.65296393917991e-05,-2.14933990045907e-05,-0.0134610550852567,1.68447377131287e-05,-6.04963961698957e-05,-0.000115614081900084,-0.00418122449132508,-0.00245553022701284,-0.00252999858323388,-0.00134731309185021,9.19231342795257e-05,-0.000154016081306274,-0.00405560115158909,-0.00489464018879815,-0.00736607852791593,-0.00571453896507323,-0.00605543413511667,-4.01492308013118e-05,-1.80567194503212e-05,0.000164778673426014,-0.000130443784252421,-0.000476138827499639,-0.00419034991177458,-0.00148709249094026,-0.00656494343239977,-0.00680875894800526,-0.000561967292442844,-0.00794868804264182,-0.00204022926492531,-7.69405858163097e-05,-1.80567194503212e-05,-0.00122647761507455,-0.00624379758673488,-1.95350954834694e-05,-0.00560379490638008,-0.00429410672140484,-0.00935520416036262,-0.00035848202880473,-6.97980132020604e-05,-0.000575442313571983,-7.94590171988574e-05,-0.00457085373684674,-0.00205330038959595,-0.00408413219321346,-0.00554311771994875,8.20641512078168e-05,-0.00421472573600212,-0.00380893799370963,-0.000586319477383412,-0.00908845854288698,-0.00271577789589905,-0.00319639729492138,-5.21652227902791e-06,-0.00051555017955085,-4.01492308013118e-05,-0.000157087521914789,5.86206153574409e-05,-0.0058024800272114,-0.000287989386603016,-0.000438177661352235,-0.000655362581984065
"19:17201520:T:G",-0.00857390489707166,-0.00376042973849522,-0.000196249724601305,-0.00297427996058186,-0.000634913248187541,0.322378433967212,0.000129856972030495,-0.00146133704310802,-0.00315436292224947,2.69565890853585e-06,-0.00608385317113935,-0.000425107543112979,5.09139776170286e-05,-0.00940413203437007,-0.000729462460694386,-0.00300053788435584,-0.00297427996058097,-0.00128637847895341,-0.000196249724601305,-0.00388396485428633,-0.000496311415696393,-0.00352656488473668,-0.00258645180198425,-0.00608385317113935,-0.00037320616202674,-0.00493190273971766,-0.00406747969213406,0.000271574222961313,2.89869796370468e-05,-0.00721150533110748,6.74914278366856e-05,-0.000895734767096812,-0.000826415637521283,-0.00230320538843021,-0.0065973572295821,-0.000210608841825,-0.000688331229302008,-0.0029002307384296,-0.000143971967802692,-0.00222614036936353,-0.00818455784853223,-0.00334784161732937,-0.00279288224738972,-0.000336080394356397,-0.00138138721657644,-0.0027276043686717,-0.00478829493232835,-0.00195223501463282,-0.00650458612182536,-0.0041643067194217,-0.00302313128546583,-8.99670236655936e-05,-0.00134573202134192,-0.0064603106765766,-0.00186819386757087,-0.00499574907108924,-0.00451818031371953,-0.000124541863021133,-0.00220289099890358,-0.00393921990411705,-0.0093283646838902,-0.00438853186223653,-0.0077031623087267,-0.00154184321485795,-0.00134573202134192,-0.00776592131464549,-0.00141868106886767,-4.11002878459854e-05,-0.0077587692021428,-0.00594926503459847,-0.0229240897914407,-0.00116860218129666,-0.00303821258841186,-0.00271233371935153,-0.00115173226836429,-0.00338436898108663,-0.00506048808776116,-0.000126030123313914,-0.0158749770075115,-0.000359792004508197,-0.00672197970621147,-0.00543571288319988,1.79212163775588e-05,-0.00673373483280093,-0.00225951969364813,-0.00877550170980568,-0.00795759632799653,-0.00409911173508348,-8.99670236655936e-05,-0.00149976851221911,-0.00729169535110152,-0.00679823140621494,-0.000790164158531947,-0.000708463920583213,-0.00118802088849712
"19:17202935:G:A",-1.37546089939988e-05,0.000132026587905898,-0.000166645255844422,8.70903365690623e-06,-8.20990921637232e-05,0.000129856972030495,0.0709527867669655,-6.60336217332969e-05,0.000165899797755387,2.14169470780234e-06,-1.80045872806289e-05,-4.32255439797302e-05,-0.000639777578497203,-0.000110139902356643,0.000357759502040089,-5.30432693999217e-05,8.70903365690623e-06,-0.000893994580597024,-0.000166645255844422,9.58128819688042e-05,-8.20990921628351e-05,-0.000588464247504028,-2.00940815213713e-05,-1.80045872806289e-05,-4.72953703747336e-05,-1.37546089939988e-05,-0.000371586872469187,-0.000260702346723818,-4.92327999896958e-05,0.000126280401453904,6.53272134591987e-05,-1.80045872806289e-05,-0.000922491366022626,-0.00338137809359829,8.23495409827402e-05,0.000246589809187014,-0.000297713427292123,9.18786081784972e-05,-8.39381902650871e-05,-6.58020054640218e-05,-0.00101851414126131,7.2982642002728e-05,-0.000564620645052472,-0.000732902481475506,-9.85198009280097e-05,-0.000197881489937046,-0.00544827396047687,-0.000111725494690518,-0.000953772162893607,-0.00102354229017987,-0.00297391530368074,-5.67702356795152e-05,-2.62252455280887e-05,-0.000106914491039056,-0.000170516786623942,-0.000128140281358213,2.36747178368191e-05,-0.000757139447600252,-1.15049957534197e-05,-0.000219570589122142,0.000247940527443369,0.000167370652956578,-0.00109944444926136,-0.00417727420142544,-2.62252455280887e-05,0.000146963095214225,-0.00102262263273634,-2.82244393945419e-05,-0.0053249910801485,-0.00106686000798994,-8.0609570911605e-06,-0.00416184598253988,-0.00130718418399045,-0.000328245787077464,-0.000108536336870024,-0.00325936399375859,9.18786081784972e-05,-0.000970321649211847,-0.00456051422199533,-0.0001372528704362,-0.000616873060435452,-0.0052328234724861,-0.00361276122597864,-0.0015012605765925,-6.7710805325305e-05,-0.00166371983701374,-0.000748175724778477,-0.000298529337116271,-5.67702356795152e-05,-0.000201237381579844,9.31514437487735e-05,-0.00448741758624571,-0.000169241075735016,7.87516812241762e-05,-0.0040709780372179
"19:17205079:A:G",-1.7932573602053e-05,0.000164117687074139,-0.000209539480382048,1.04920334713654e-05,-0.000105016772356414,-0.00146133704310802,-6.60336217332969e-05,0.103739978762471,0.000206148679288809,2.58012551945797e-06,-2.3038723662161e-05,-5.66582275425276e-05,-0.000159921964995924,-0.000257279267066757,-0.00158868773078868,-6.65979225180635e-05,1.04920334713654e-05,-0.00261580030841468,-0.000209539480382048,0.000119230186765407,-0.000105016772357303,-0.00363650269802296,-2.55490999725438e-05,-2.3038723662161e-05,-0.000727825710750807,-0.00426758347327816,-0.00773027661669889,-0.000327933048807516,-6.20356787965903e-05,0.000157147270489766,8.12632523077284e-05,-2.3038723662161e-05,-0.00307189660914275,-0.00145528092913327,-0.00670331833886717,0.000305037400642583,-0.00110583490887528,0.000113383203773409,-0.000105204752975929,-8.35817409319262e-05,-0.0050805545023378,9.05241956070668e-05,-0.00119265209365516,-0.000815474399217031,-0.000124493108594415,-0.000248789538409788,-0.00234084873993456,-0.000140152656141979,-0.00103054264207447,-0.00583444670020405,-0.00469258690885166,-7.10600333526656e-05,-3.29150468694195e-05,-0.000134448045061575,-0.000212336672488433,-0.00109783462323332,-0.00428566608928893,-0.000833421634210296,-6.88412875469169e-05,0.000217477612176609,0.000308271432245988,-0.00616733878968834,0.000267886745979773,-0.000887379636949071,-3.29150468694195e-05,-0.00153256636090404,-0.00453920553102982,-3.53168015703176e-05,0.000595450448498624,0.000276973984205675,-0.00102465210613101,0.000183952418891131,0.000454523585109001,-6.65979225180635e-05,-0.000388990559736513,-0.00367768721522399,-0.00868795954716806,-0.000250092876347807,1.59143796869543e-05,-0.000172516460766658,0.000243426102027655,-0.000984040920100959,0.000318047055649195,-0.00388542166233119,-0.00451688292672969,-0.000845642630625143,-0.00164192823184095,-0.000101074350635777,-7.10600333526656e-05,-6.1546823550529e-05,0.00011600569059933,-0.00406915244685457,-0.00021256775023204,9.62919276901175e-05,0.000286286081474962
"19:17205696:T:C",1.19399481404159e-05,-0.000221538242571206,0.000240495178106315,-1.87131661899542e-05,-0.00127150396405362,-0.00315436292224947,0.000165899797755387,0.000206148679288809,0.0962790575111674,-4.59232918803565e-06,2.11985822531346e-05,-0.00127573538120362,0.000174156013281745,0.000162291144625293,-0.0009090322568861,7.84840603680337e-05,-1.87131661899542e-05,-0.00240259626584205,0.000240495178106315,-0.000158181743382002,-0.00118631854890605,-0.00277026679567882,2.57412780682031e-05,2.11985822531346e-05,-0.00300977922221346,1.19399481404159e-05,-0.00262829057793823,-0.00514035609185814,7.01197275816412e-05,-0.000209234402862357,-0.000437578967916963,-0.00327474891077006,-0.00228444601501021,-0.000999362783933755,-0.00035658864657151,3.20920815051196e-05,-0.00655606895102689,-0.00016498684513877,0.000126066553775672,8.54712220181852e-05,-0.00256922601269594,-0.000588869594867703,0.0004469529335136,8.54712220190734e-05,0.000135722180318432,0.000285009944360759,-0.00444139320665293,0.000165899797755387,-0.00387308921945895,-0.000196616031883146,-0.00562022991195033,8.66448087570859e-05,3.9035576069324e-05,0.000154938040911823,0.000249919594196513,-0.00274998138522253,-0.000625525311769515,-0.00313705482479421,8.25894163147822e-05,-0.00246109170846776,-0.000420774429741755,-0.000802740749699105,-0.00202122392434845,-0.00392415582734085,3.9035576069324e-05,-0.000801947807191894,-0.0012260505465278,4.33591226158825e-05,-0.000807129923813932,-0.00206216741112453,-0.00209077186014817,-0.00117410395506479,0.000131728760761618,-0.00269021275427672,0.000158637507276183,-0.000312926108263945,-0.0009901541759465,0.000287909478327464,-2.8424428643703e-05,0.000199351185711016,-0.00281024703227395,0.000770595834208798,0.000215933055224049,-0.00490448676450361,8.97673542725741e-05,-0.000300600950229324,-0.00303548791133768,-0.00241504208231458,8.66448087570859e-05,0.000293600905893143,-0.000152505714796192,-0.00195780867164164,0.000246817253589882,-0.00110287246424168,-0.00150045094454399
"19:17207602:G:A",2.49982571531859e-07,-3.51791426389525e-06,2.94199448713783e-06,-2.26514956125357e-07,1.51706936435403e-06,2.69565890853585e-06,2.14169470780234e-06,2.58012551945797e-06,-4.59232918803565e-06,0.0106504502022409,3.56530902578811e-07,7.44224382565051e-07,2.31983235732258e-06,2.10994640070794e-06,-1.21592164434858e-05,1.09253053892644e-06,-2.26514956125357e-07,-7.37878887768773e-07,2.94199448713783e-06,-2.44070925159434e-06,1.51706936524221e-06,1.73780023882131e-06,4.084350075928e-07,3.56530902578811e-07,9.59432490788004e-07,2.49982571531859e-07,-1.02442256295632e-05,4.00078347961852e-06,1.00456487217571e-06,-3.32644566825024e-06,-1.61023537437188e-06,3.56530902578811e-07,-4.83233663572946e-06,-0.00404001965341827,4.69441100037216e-06,-7.59263774341434e-06,-1.45185291664518e-05,-2.41860993366316e-06,1.6736140322493e-06,1.2748417654862e-06,9.73982608343249e-07,-1.83806574138856e-06,4.4564753851617e-06,1.27484176726256e-06,1.87148827279771e-06,3.34277282298956e-06,4.78566836026317e-06,2.14169470780234e-06,6.3528531502044e-07,3.60578836122727e-06,4.89448392926306e-06,1.17754508988099e-06,5.58912898185326e-07,2.04477934051539e-06,3.00914703288413e-06,-0.00448721561773091,1.55733803186564e-06,8.19219116543479e-07,1.1353983699891e-06,-5.21901009431502e-06,-7.44150503173557e-06,3.26346091483742e-06,-6.50196187645946e-06,-6.08413273006647e-06,5.58912898185326e-07,-4.02692289380724e-06,-4.60083100417563e-06,-0.00204121466972396,-2.1216671784785e-05,-6.79955256899234e-06,-1.99978575921023e-08,-4.21605076983411e-06,1.83493653338473e-06,1.09253053892644e-06,2.07764557913492e-06,-7.10919279534039e-06,-2.41860993366316e-06,3.36092648645092e-06,-3.4571705587183e-07,2.52580801429758e-06,-6.44749562006552e-06,4.58364099653608e-06,-7.89889467789351e-06,-1.10640711801224e-05,1.31796042257548e-06,1.64183711337529e-06,3.4738129475187e-06,1.59931555643311e-06,1.17754508988099e-06,3.39629089562976e-06,-2.35771771972537e-06,-1.18210481341308e-05,2.98715306534802e-06,-2.12193128312776e-06,-7.10896223576896e-06
"19:17207816:A:G",4.40545208579834e-06,1.75011014125204e-05,-2.77815811609017e-05,1.44049686667813e-06,-1.20173984443639e-05,-0.00608385317113935,-1.80045872806289e-05,-2.3038723662161e-05,2.11985822531346e-05,3.56530902578811e-07,0.124971304675062,-5.54816770925726e-06,-2.00954276792231e-05,-1.76767266850675e-05,-0.000187532577253791,-8.12016132645255e-06,1.44049686667813e-06,-0.00232745451267302,-2.77815811609017e-05,1.31536987799663e-05,-1.20173984443639e-05,-0.0019204255725267,-0.00141128246887057,3.82753524315049e-05,-7.06115959747677e-06,-1.76140565955052e-06,-0.00419027163997221,-4.642142385336e-05,-0.00150659868976,1.67869760447914e-05,9.26087733343905e-06,-2.4940656082606e-06,-0.00213344235578905,-6.02704782712848e-05,-0.00374280715308828,-0.00230090402873806,-0.00657699129462408,1.29995443236552e-05,-0.000682024184521346,-0.00173922020300488,-0.0134596568878544,1.03628364582775e-05,-0.000298915335131156,-9.76036892996746e-06,-0.00161501452290747,-3.37712608038387e-05,-0.00630879688846786,-1.80045872806289e-05,-3.04325589590704e-05,-0.00963557078320942,-0.00176329318529778,1.92618967123082e-05,-3.92797764359187e-06,-0.00140054915589083,-2.8679165039236e-05,-2.04347655783366e-05,-0.0017647261716327,-0.00168519844625159,-8.46771511575639e-06,-0.00196978607644649,-0.000754139750911875,-0.000424407693686568,-0.000825665381811724,-0.000824814143527419,-3.92797764359187e-06,-0.0017724737751097,-0.00621069714811995,-4.28001780239384e-06,-0.000986349747829962,-0.000793251381479898,-0.00412761113170834,-0.0047027108384512,-0.000240572020214103,-8.12016132645255e-06,-1.73459986978486e-05,-0.00248167365592167,-0.00221808995080242,-0.000975637132137663,2.17523128132058e-06,-0.00126346771735175,-0.00237307112621998,-0.00401544533588538,-0.00380499970567438,-0.000409181398030256,-1.01243012906593e-05,-0.00164747000633625,-0.000128668484351557,-1.25886104234141e-05,1.92618967123082e-05,-3.4602705754061e-05,-0.000987990539028871,-0.00484301619828198,-0.00104662279208245,1.16142797326191e-05,-0.00207389910642153
"19:17209145:G:A",-3.96502151911449e-06,-0.00130418167040514,-0.000930442619660354,2.98396133313616e-06,-2.86389101562534e-05,-0.000425107543112979,-4.32255439797302e-05,-5.66582275425276e-05,-0.00127573538120362,7.44224382565051e-07,-5.54816770925726e-06,0.124634237755769,-0.000287732196778023,-0.000971850325214518,-0.00382922268457087,-0.00388979822979874,2.98396133313616e-06,-0.00390130381898679,-0.000930442619660354,2.44880460149588e-05,-2.86389101553652e-05,-0.00111996001175463,-6.33618984124951e-06,-5.54816770925726e-06,-1.60452792039578e-05,-3.65961221318045e-05,-0.000322744623909355,-0.000657611946707881,-0.00300794059028853,2.95644857617461e-05,1.81002826709076e-05,-0.00375403516501649,-0.00474287181930855,-0.00079006226506273,-0.000416504963320463,-1.87769803261517e-07,-0.000508157399766063,2.42137616170979e-05,-0.0015699109238474,-6.32941665230646e-05,-0.00375885592086211,-0.00173341895956902,-0.000849251605603563,-0.00014086593890017,-0.000108945132625493,-0.00102469749759582,-0.00113316359549787,-0.00173984380397485,-0.00266471136648594,-0.00140037253943426,-0.000708190485191107,-2.00747858825068e-05,-0.00552190464815894,-0.000242020262880338,-7.21776354595249e-05,-0.00137745874875073,-0.003705481891906,-1.3581465982071e-05,-1.92767568165664e-05,-0.00389019592252016,-0.000599767680031782,-0.00052093775087636,-0.000751470613463923,-0.000353289410846891,-0.00552190464815894,-0.0031994094830905,1.91374786178145e-05,-9.46258768941277e-06,-0.00325498992703244,-0.000720079721304501,-0.00729833603979557,-3.66090282257758e-05,-0.000128019557585901,-1.84747569758059e-05,-0.00110484162064672,-0.00278067414516903,-0.00216026878963849,-8.75617862838851e-05,4.48172931921675e-06,-0.00246257446609555,-0.00251610392161083,-0.0022310993964334,-0.000277982062726778,-0.00355354323384249,-2.35803182420113e-05,-0.00157845137839718,-0.0083082224114932,-0.00366663486058627,-2.00747858825068e-05,-8.89964752142092e-05,2.39373467865178e-05,-0.0048227827423557,-0.000628248885038651,-0.000606465459620509,-0.000399226850505308
"19:17209930:C:A",-1.54592769314732e-05,0.000139927708687537,-0.000829395142062594,9.42230626232998e-06,-0.00293544074483876,5.09139776170286e-05,-0.000639777578497203,-0.000159921964995924,0.000174156013281745,2.31983235732258e-06,-2.00954276792231e-05,-0.000287732196778023,0.126124586590186,-0.000124778596199526,-0.00227289853899482,-0.000987879560934601,9.42230626232998e-06,-0.00118317956046088,-0.000829395142062594,0.000102574119217103,-0.00307651718178992,-0.000621484198958022,-2.23771969949382e-05,-2.00954276792231e-05,-5.28971310842508e-05,-1.54592769314732e-05,-0.00110948329727378,-0.00436111884280166,-0.00124482605659981,0.000134064879009799,7.05024940845789e-05,-0.00290781989559452,-0.000836569191663195,-0.00178035012901923,-0.00213057369166725,-0.00133126574787923,-0.000547028647908121,-5.6723833390393e-06,-9.43872225791509e-05,-0.00240807161487488,-0.00275494685679067,-0.0109367124538551,-0.000141625367821696,-1.79305286343023e-05,-0.00260387921233818,-0.000229155189536812,-0.00826468807994951,-0.000639777578497203,-0.00128275809617406,-0.00146398142123028,-0.0114257361182197,-6.33621268351092e-05,-2.90816815784467e-05,-1.13865906667954e-05,-0.000195970691091674,-0.000359855197788583,-0.000454280310569821,-0.000173876090934222,-6.13129116393551e-05,-0.00741165769097396,-0.00191268515942511,-0.00574799071627563,-0.00175004978711613,-0.00455192081577938,-2.90816815784467e-05,-0.00215104169801617,-0.000487891514395322,-3.12707491136877e-05,-0.00250135969034826,-0.00195193614696354,-0.000486165488602808,-0.000167329912328817,-0.00133344242222488,-5.92421451468539e-05,-0.000122979674766377,-0.00114899945090974,-0.00216443353147699,-0.000859330880167875,-7.33718871170908e-05,-0.000136519698939352,1.37589285209572e-05,-0.00341510182310678,-0.00156355109761286,-0.00723420311131173,-7.63330193906953e-05,-0.000225637985461269,-2.23235097420726e-05,-9.05259015615556e-05,-6.33621268351092e-05,-0.000232939757243145,9.980995219383e-05,-0.00280956679925426,-0.000422833030372161,-0.000264918485916255,-0.00146919434898152
"19:17212989:C:T",-1.34850293571631e-05,0.000129287933932076,-0.0055563527571536,-0.00134186264862191,-0.000970133181810162,-0.00940413203437007,-0.000110139902356643,-0.000257279267066757,0.000162291144625293,2.10994640070794e-06,-1.76767266850675e-05,-0.000971850325214518,-0.000124778596199526,0.142448813910162,-0.0004739709871453,-5.21978110432642e-05,-0.00134186264862191,-0.00584159894162806,-0.0055563527571536,9.39211698316456e-05,-8.07854890778614e-05,-0.000589204268149679,-1.97378469808385e-05,-1.76767266850675e-05,-4.65182537663367e-05,-1.34850293571631e-05,-0.00271263270437583,-0.000258053760983756,-4.84325002112485e-05,0.000123669575220475,6.40990286200349e-05,-1.76767266850675e-05,-0.00433482768282811,-0.00408379081911825,-0.0105294832342064,-0.00129294491014775,-0.00948094718441084,9.01433627751302e-05,-8.26835940772597e-05,-0.00404992671211968,-0.00233919098520907,7.16117594921073e-05,-0.00613431172324219,-0.00416602345689299,-0.00424905915077911,-0.0053536806256762,-0.000475408067819316,-0.000110139902356643,-0.0011463449566822,-0.0015003356113974,-0.00322884717795269,-5.58811676780735e-05,-2.57868147164331e-05,-0.000105370966004159,-0.000168373623409934,-0.000126348843425106,-0.00224854808527031,-0.00413553856783544,-5.40495657368467e-05,-0.00345573651777364,0.000241877343940544,-0.00349338221665274,-0.00129811977910599,0.000195317758824309,-2.57868147164331e-05,0.000143884133542826,-0.00320219783715725,-2.77595479065695e-05,-5.98765978736537e-05,-0.00126576531254852,-0.00011341103641449,0.000146189397679741,-0.000859815018039889,-5.21978110432642e-05,-0.00518046872486178,-0.0039797946702409,9.01433627751302e-05,-0.000367931899883267,-0.00126564741595292,-0.000135393781664384,-0.00408901112612625,0.000502225926318545,0.000250360383199144,-0.00352254350173542,-6.66257397474723e-05,-0.0041421707943412,0.000728092640070344,-7.92543007799296e-05,-5.58811676780735e-05,-0.000198877056655,9.13134695412765e-05,-0.00345879793509773,-0.000167105192442563,7.73542108998271e-05,0.000226565688280722
"19:17214064:C:G",-0.00014927889856331,-0.000799087904043816,-0.00028358492456082,-0.000243353921431044,-0.00457250719380387,-0.000729462460694386,0.000357759502040089,-0.00158868773078868,-0.0009090322568861,-1.21592164434858e-05,-0.000187532577253791,-0.00382922268457087,-0.00227289853899482,-0.0004739709871453,0.150389506017577,0.000167258367042677,-0.000243353921431044,-0.000741673917296737,-0.00028358492456082,-0.000358201301761341,-0.00429390787855155,-0.000850729360407421,-0.00218258555449413,-0.000187532577253791,0.000133255441132185,1.07624155782915e-05,-0.00218031898371152,0.000793544700719906,0.000144741419092043,-0.000473085482086688,-0.000636613671753494,-0.00347902187212412,-0.00103530105841987,-0.0013022410633674,-0.00224252326533092,0.000892421895763995,-0.0110852398355288,-0.00231894745553518,0.000273067525373705,-0.00472913711475886,-0.00559013567270794,-0.000288242277475703,0.000526494230092212,0.000162502476009685,-0.00311539956682783,-5.16362730467179e-05,-0.00288545530673101,-0.00160833325849552,-0.00737768167536412,-0.0063483586359605,-0.00173231325336731,0.000189188327115453,8.32169020315021e-05,-5.19312263831395e-05,-0.00065902421535835,0.000364547375080626,9.59134021911723e-05,-0.000355580573850212,0.000178295282324825,-0.0052833467858866,-0.00787983527896774,-0.000302853677448311,-0.00804745819484953,-0.000329919167465498,8.32169020315021e-05,-7.5706166270173e-05,-0.00356969750034475,9.4741671761156e-05,-0.00333274349654378,-0.0119193977113197,-0.0027929947408829,-0.00077432643816433,-0.00126477624177035,0.000167258367042677,-0.000259781994883745,-0.000474184573296732,-0.00231894745553518,-0.00378178305106047,-7.5430258476672e-05,-5.41304480323745e-05,-0.00709478057031987,-0.0021263497742261,9.22759705304088e-05,-0.00483412295278329,-0.000980874497479078,-0.000591506060779068,0.000164229892115841,0.000252129882785113,0.000189188327115453,-0.000741155582979047,-0.000343356858794941,-0.000959825424033944,-0.00020708406361436,-0.000251604407016437,-0.000398672450200088
"19:17214708:A:G",-5.93570354823214e-06,6.25987932254546e-05,-7.90761531010986e-05,4.44042057878846e-06,-0.00396615872461581,-0.00300053788435584,-5.30432693999217e-05,-6.65979225180635e-05,7.84840603680337e-05,1.09253053892644e-06,-8.12016132645255e-06,-0.00388979822979874,-0.000987879560934601,-5.21978110432642e-05,0.000167258367042677,0.127280983097162,4.44042057878846e-06,-0.000497848016303593,-7.90761531010986e-05,4.54682296977538e-05,-0.00388097330946735,-0.00366910131475517,-9.19467847904087e-06,-8.12016132645255e-06,-2.20281329070815e-05,-5.93570354823214e-06,-0.00364847358679565,-0.000124511282930229,-2.30349024539223e-05,5.9764340765156e-05,3.11071634646609e-05,-8.12016132645255e-06,-0.000426375925553835,-0.00496599328987291,-0.00656325951080117,0.00011692921459705,-0.000665616192160989,4.43853942853067e-05,-0.000160262368548381,-0.00393143401054008,-0.00142219642542063,3.49413505285057e-05,-0.000154316511020269,-3.0301375988806e-05,-0.00411395402275705,-9.41492752364326e-05,-0.0101413733979951,-5.30432693999217e-05,-1.61520330159703e-05,-0.00181716011321864,-0.0014532376706633,0.000549447409471604,-0.00197761063589486,-5.04786366022358e-05,-8.1213304108374e-05,-6.00974435869261e-05,-0.00287718269301696,-0.00403016957516744,-0.00293826907217909,8.55274207314238e-05,0.000116265285153183,-0.000417122495127487,-0.00162808175100793,9.66334899743515e-05,-0.00197761063589486,6.99543111384315e-05,-0.00292405800829432,-1.33790257148547e-05,-0.011525951188796,-0.00159954263264428,-8.575539639466e-05,7.1917190031634e-05,-0.00103153810336387,-0.00104423729622827,-5.13429855102387e-05,-0.00279711531659999,4.43853942853067e-05,-9.47891322296002e-05,-0.00149274679266131,-6.50275517912746e-05,-0.00586201514934803,-0.000864430038784114,0.000121051314987852,-0.00496356072867155,-3.13032479235531e-05,-0.00401138283204805,-0.000100923295573097,-0.00421308385494346,0.000549447409471604,-9.6047192221782e-05,-0.00638802759121226,-0.00274110314273202,-8.05089392557079e-05,3.88039738181689e-05,-0.0014650326801382
"19:17215603:G:A",1.00286335324995e-06,-1.43331826381043e-05,1.19621748950749e-05,1.9912903341357e-05,-0.00236535438247998,-0.00297427996058097,8.70903365690623e-06,1.04920334713654e-05,-1.87131661899542e-05,-2.26514956125357e-07,1.44049686667813e-06,2.98396133313616e-06,9.42230626232998e-06,-0.00134186264862191,-0.000243353921431044,4.44042057878846e-06,0.0703947266501421,1.32668716172901e-05,1.19621748950749e-05,-9.94031986323307e-06,-0.00228016896733152,1.35379065362429e-05,1.65363661164264e-06,1.44049686667813e-06,3.89390755106689e-06,1.00286335324995e-06,-9.25666874191933e-05,1.62726980379446e-05,4.07925330581094e-06,-1.3546913389284e-05,-6.55901922375079e-06,1.44049686667813e-06,1.25656731349011e-05,-0.00272369988498866,-0.00130876754357523,-3.1014033814003e-05,1.65413738626441e-05,-0.00257428989318775,6.80587809753774e-06,5.16767977121191e-06,-2.52102795039733e-05,-7.49452848403109e-06,-0.00152325428504607,5.16767977121191e-06,7.59892558566122e-06,1.35938548915249e-05,-0.00249999347357033,8.70903365690623e-06,5.75615668285678e-06,-4.30578340022691e-05,-0.00222290994424146,4.78936667658303e-06,2.27137522479381e-06,8.31103193466021e-06,1.22380341469608e-05,9.54992866475379e-06,-0.000708486780327533,3.31791029406503e-06,4.61638645976592e-06,-0.00200526478576357,-3.03063873179354e-05,-0.00467724323599583,-0.00175846377909039,-0.00200601629313013,2.27137522479381e-06,-0.000110360321353475,-0.00215630624412366,2.47033254652251e-06,-0.000776078568104133,-0.00177468706868744,-0.0031640306658538,-0.00211185097068878,-0.0018617905987286,4.44042057878846e-06,8.44602409610928e-06,-0.00517571798337624,-0.00183663343047424,1.36684466367498e-05,-0.00386954317907318,1.02689345808926e-05,-0.00117179246428911,-0.00144447572689543,-0.00146029943264558,-0.00329352224067314,5.34493958515014e-06,6.65434630864326e-06,-0.00181995256192025,6.50084938680351e-06,4.78936667658303e-06,1.38137212335465e-05,-9.59961935098619e-06,-0.000926772303161627,1.21476984293878e-05,-0.00239339197621558,-0.00188827589190321
"19:17219463:A:G",-0.00219912104967701,-0.00246346285120858,-0.0021741658924137,1.32668716172901e-05,-0.00224422051493711,-0.00128637847895341,-0.000893994580597024,-0.00261580030841468,-0.00240259626584205,-7.37878887768773e-07,-0.00232745451267302,-0.00390130381898679,-0.00118317956046088,-0.00584159894162806,-0.000741673917296737,-0.000497848016303593,1.32668716172901e-05,0.232545715486297,-0.0021741658924137,-4.33403204622707e-05,-0.00215903509978865,-0.0086699478408403,4.73133190936892e-06,-0.00232745451267302,-0.00164474915712187,-0.00249560963274043,-0.000778235443388287,-3.59735296955321e-05,-0.000130262373581935,-6.36144882513179e-05,-2.62739438818826e-05,-0.00407412654648631,-0.00391413799411211,-0.0130910168621807,-0.0112586710376266,-0.00275302061038207,-5.18836969436443e-05,-6.78334406387648e-05,-0.0016839457581721,-3.05733792362872e-05,-0.00138484523972782,-0.00333748182297722,-0.00786562577628303,-0.00116293718765714,-0.000235965265360072,-0.00233195888792981,-0.00178694986430061,-0.00200430794821749,-0.00371918161920171,-0.00983071819179138,-0.00686461586721832,1.11911762514794e-05,-0.00144796983380679,-0.000431510506528454,-0.00321902445516109,-0.000111992718903053,-0.00168946087460409,-0.00175996440164905,1.09386736593109e-05,7.12045169084519e-05,-0.000573204291095308,-0.00651646478407031,-9.92296722790442e-05,-0.000289831102694649,-0.00144796983380679,-0.00686561746174164,-0.00965386217071718,6.8015899241658e-06,-0.00440966090333017,-0.000116671515375089,-0.00507433953628222,-0.000285090996381854,-0.00257745838893442,1.06676717646081e-05,-0.00264338941843612,-0.00311276325534404,-0.00295480929539593,-0.00102054252673245,-0.00236817220437047,-0.000666248572815498,-0.00215577732043348,-0.004110282143996,-0.000174029778525764,-0.00188333306547506,-0.00249208141774115,-0.00113969227989497,-0.0203923748382069,-0.000415497565649403,1.11911762514794e-05,-0.00290286666976858,-0.00314183160988613,-0.000606287914097781,-3.16904656401107e-05,-0.00292654653054658,-0.0022194392263204
"19:17219684:C:T",-2.19680911817122e-05,0.000191776509394614,0.00552482497037055,1.19621748950749e-05,-0.000127012564031581,-0.000196249724601305,-0.000166645255844422,-0.000209539480382048,0.000240495178106315,2.94199448713783e-06,-2.77815811609017e-05,-0.000930442619660354,-0.000829395142062594,-0.0055563527571536,-0.00028358492456082,-7.90761531010986e-05,1.19621748950749e-05,-0.0021741658924137,0.0911378843929875,0.000139646796250226,-0.000127012564029805,-0.000292993662867502,-0.000602837890566477,-2.77815811609017e-05,-7.1254747829208e-05,-2.19680911817122e-05,-0.0030431129944537,-0.000393051031562841,-0.000736459329168326,0.000183840116459777,-0.0027426330818523,-0.000977783009572519,-0.00231662031750801,0.000291750789134237,-0.00106246582939118,-0.000260939724711307,-0.00388956278656405,-0.00126203554284832,-0.00012486092379671,-0.00399017835879523,-0.00108472393367887,0.000105818395406132,-0.00170848309483684,-0.000892837668883928,-0.00420573611150754,-0.000353753783435273,-0.000879034230956588,-0.000166645255844422,-0.000163738001407232,-0.00143255315684865,-0.00530594712518972,-8.41479207913665e-05,-0.000640911485645823,-0.00016020986858134,-0.000255236241666346,-0.000193684686454532,-0.0010506021053045,-0.00406219827214738,-8.16259744720327e-05,-0.000816661414928532,0.000358557053014685,-0.00364204323926742,-0.00296871921981978,-0.00223691129834425,-0.000640911485645823,0.000212393253734788,-0.0024332599498873,-4.17635048277631e-05,0.000212159346812513,-0.00297410993984215,-0.000633994683460593,-0.00108031826499211,-0.000813121042051002,-7.90761531010986e-05,0.000901019767534983,-0.00746696536458913,-0.00288560739735644,-0.000298820860144211,1.81428435341857e-05,-0.000205712462780561,-0.000311600769168585,0.00026527273963417,0.000368926570765815,-0.00325012221331011,-0.000102939937180579,-0.00112650721789542,-0.00149733423135068,-0.000464217010581081,-8.41479207913665e-05,-0.000301625080256329,0.000135971118108813,-0.00471459034949628,-0.000253583940534874,-0.00405423773907732,0.000331391076820786
"19:17220740:A:T",8.25441374896485e-06,-0.00012496581321475,0.000139646796250226,-9.94031986323307e-06,-0.00347309933873774,-0.00388396485428633,9.58128819688042e-05,0.000119230186765407,-0.000158181743382002,-2.44070925159434e-06,1.31536987799663e-05,2.44880460149588e-05,0.000102574119217103,9.39211698316456e-05,-0.000358201301761341,4.54682296977538e-05,-9.94031986323307e-06,-4.33403204622707e-05,0.000139646796250226,0.0681133919058974,-0.00258312247339454,-0.00110583117135388,-0.00202077982677196,1.31536987799663e-05,3.88009087393115e-05,8.25441374896485e-06,-0.00541745594394172,0.000215668402334224,4.10502918004596e-05,-0.000118400890651849,-6.09577816099716e-05,1.31536987799663e-05,-0.000177967993217898,-0.00400380181708559,0.000371336992521343,-0.000246595315958054,-0.000997900670820506,-0.00468424092627018,7.26646350033278e-05,5.13207605656874e-05,-0.00233302597620355,-6.96807911948483e-05,-0.00331118074932313,-0.00128008696923754,8.00126708986326e-05,0.000165398156678265,-0.00360443593472759,-0.00342381099959077,1.9172002097001e-05,-0.000354072661565397,-0.00398012446571094,4.97815817093183e-05,2.2602327941712e-05,9.00685091851372e-05,0.000144527677286455,0.000104518536336862,-0.00244045936435011,3.18850857148334e-05,4.7637745732132e-05,-0.000183605994929614,-0.000237647661530893,-0.00146894875847892,-0.000217356274919922,-0.00100706954048224,2.2602327941712e-05,-0.000142113493174278,-0.00259571904009803,2.48945964180791e-05,-0.00231260852296788,-0.000226188287767215,-0.00214485944174125,-0.000151087462398003,7.79251062033026e-05,4.54682296977538e-05,9.20065186944541e-05,-0.00108826354959923,-0.000788351388480102,0.00016688759489103,-0.00102221159442006,0.000115686889498257,-0.00215695072408462,0.000453359630901318,-0.000252832778492973,-0.00119071819439309,5.35759879536357e-05,6.70778566886909e-05,-0.00212820400093605,6.86016358910635e-05,4.97815817093183e-05,0.000169812606996445,-8.6474325406094e-05,-0.0012032235902586,0.000142920447817829,-0.000909483408542577,-0.000235271874674758
"19:17221992:C:T",-8.92041729372295e-06,-0.00122802983854697,-0.000127012564029805,-0.00228016896733152,-0.00207535970729644,-0.000496311415696393,-8.20990921628351e-05,-0.000105016772357303,-0.00118631854890605,1.51706936524221e-06,-1.20173984443639e-05,-2.86389101553652e-05,-0.00307651718178992,-8.07854890778614e-05,-0.00429390787855155,-0.00388097330946735,-0.00228016896733152,-0.00215903509978865,-0.000127012564029805,-0.00258312247339454,0.13518162475581,0.000514984361997151,-1.35463616501852e-05,-1.20173984443639e-05,-0.00333683695596765,-0.00240921692737039,0.000174119645661719,-0.00463106314751638,-3.43621837490815e-05,7.71698833545997e-05,-0.00324354900642732,-1.20173984443639e-05,-0.00189170873947919,-0.000769943692462416,-8.75754935933948e-05,-7.58593784011552e-05,-0.00668449732541276,-0.00184325255446716,-6.04963961698957e-05,-0.000237923876999169,-0.00095811368051324,-0.0025251753657809,-0.000271785548053849,-0.000350964458158742,-0.000630287349121517,-0.00112146801860735,-8.31767186046939e-05,-8.20990921628351e-05,-0.00708747921266362,-0.00118318255555572,-0.00155722980808459,-4.01492307995355e-05,-1.80567194503212e-05,3.68940321253675e-05,-0.000130443784251533,-0.000610989574147958,-0.0055107026637673,-0.00133686881865991,-0.00647975801725043,-0.00653015963275472,-0.000476781877294385,-0.00201757696952143,-0.00210987440369248,-7.6097941110298e-05,-1.80567194503212e-05,-0.00102317166569943,-0.00339033925269172,-1.95350954825813e-05,-0.00142061811738747,-0.00443518315835689,-0.00928977500897243,-0.000208258356524382,-6.97980132011722e-05,-0.000561688196607513,-7.94590171988574e-05,-0.00151693329452218,-0.000568475326108597,-0.003998946778065,-0.00080017097058338,-4.58204900937176e-05,-0.00261291778589356,-0.00277140461864178,-0.000354157067987693,-0.000610998755384173,-0.00263059248075059,-0.00299309134554626,-0.000249240752350666,-0.000501796062585491,-4.01492307995355e-05,-0.000157087521913901,5.86206153583291e-05,-0.000248721094682214,-0.000415874027903662,-0.00194576511348377,-0.000423200172589233
"19:17222584:A:G",-0.00195220587560119,-3.59494160218077e-05,-0.000292993662867502,1.35379065362429e-05,-0.000254795291414034,-0.00352656488473668,-0.000588464247504028,-0.00363650269802296,-0.00277026679567882,1.73780023882131e-06,-0.0019204255725267,-0.00111996001175463,-0.000621484198958022,-0.000589204268149679,-0.000850729360407421,-0.00366910131475517,1.35379065362429e-05,-0.0086699478408403,-0.000292993662867502,-0.00110583117135388,0.000514984361997151,0.31675054708272,-0.0071352446675661,-0.0019204255725267,-0.0012459843882997,-0.00218002935344508,0.000872710701253609,-0.00161329155112266,-0.00345713928410962,-0.0016087878786033,-0.0036964514655935,-0.00122096172170227,-0.0114346715210627,-0.00564531674357394,-0.0073817121044546,-0.000268791434936411,-0.011668959767396,-0.00262528425238795,-8.91484941663023e-05,-0.00238299450019053,-0.0037840906896931,-0.00354640910454851,-0.00525268648887778,-0.00292787640042835,-0.00178176875688685,-0.00133764463939112,-0.00107389270141356,-0.00463989518732699,-0.00565685927801596,-0.00476862043645232,-0.00417975470884979,-5.53210070597387e-05,-0.00157833841682997,-0.00349130031599554,-0.000600785305582718,-0.00226714480049583,-0.00327698649609909,-0.00443358026395035,-0.00245563252882164,-0.00309198470184935,-0.00488106897859009,-0.00873438168702911,0.0002352562292538,-0.00043135742938416,-0.00157833841682997,-0.00012810771833216,-0.000597409030646201,-2.49374542917735e-05,-0.00339668116788383,-0.00147828761705515,-0.0278412438824902,-0.00675333112630172,-0.000171444001550114,-0.00470707385191993,-0.000183951281111483,-0.0111060209435427,-0.00383576443390776,-0.00600979425043668,-0.00202990732007802,-0.00410010208808576,-0.0026448276550104,-0.00266135673857315,-0.0062002546846367,-0.014008057808327,-0.00018779207285391,-0.00372344236389122,-0.000971813753458228,-0.00144027605168784,-5.53210070597387e-05,-0.000519599835177686,-0.00362351592866883,-0.0114313282120686,-0.00285591649801198,-0.00306881267317483,-0.0193476068233029
"19:17223128:A:C",-0.00340146827049725,2.09732521714301e-05,-0.000602837890566477,1.65363661164264e-06,-0.00334056887004941,-0.00258645180198425,-2.00940815213713e-05,-2.55490999725438e-05,2.57412780682031e-05,4.084350075928e-07,-0.00141128246887057,-6.33618984124951e-06,-2.23771969949382e-05,-1.97378469808385e-05,-0.00218258555449413,-9.19467847904087e-06,1.65363661164264e-06,4.73133190936892e-06,-0.000602837890566477,-0.00202077982677196,-1.35463616501852e-05,-0.0071352446675661,0.103023935557526,-0.00141128246887057,-8.01303759701e-06,-2.02434457818867e-06,-0.0106542337609135,-5.02521344989404e-05,-8.41039028998125e-06,2.00732584065832e-05,1.08426654872318e-05,-2.85644279962582e-06,2.6418197184519e-05,-0.00303779127168724,-0.00481517145398858,-0.00189050706459248,-0.000315090460484946,-0.00183751338595428,-0.000305754752185194,-1.10338267074184e-05,-0.00176089726535889,1.21628615330494e-05,-6.36658207744389e-05,-0.0012641372026696,-1.71471198138207e-05,-3.70036621450964e-05,-0.0002148044884418,-2.00940815213713e-05,-0.00150855157419461,-0.00181188418429823,-0.000597183987362193,0.000396049179891556,-4.4789751258989e-06,-1.90152092702789e-05,-3.15950248932495e-05,-0.00106062003927487,-0.000264608095000618,-6.79964320671189e-06,-9.58169582432333e-06,2.81087975331218e-05,3.60368312586345e-05,-0.00150828943383452,-0.00187050113453857,-0.00100131550028504,-4.4789751258989e-06,2.3272361409532e-05,-0.00879670128439436,-4.87614766786493e-06,-0.000662643001741792,-0.00184474775591159,-0.000142542627898479,-0.00217179404776946,-0.00117417166170863,-9.19467847904087e-06,-1.93782380781826e-05,-0.000137506600538018,-6.01779239728373e-05,-0.000601131618826578,2.50068446927543e-06,-0.000888087143642302,-0.0045100322347249,-0.000580595154105801,-0.00181844265515885,-0.0053946582605704,-1.14370792108076e-05,-0.00127115203928696,-3.95787899289957e-05,-1.41574725454063e-05,0.000396049179891556,-3.78794904882795e-05,1.51177623024523e-05,-0.00588017737915969,-0.000671726156759256,-0.00165916364073304,-0.00481629521905713
"19:17223436:G:T",4.40545208579834e-06,1.75011014125204e-05,-2.77815811609017e-05,1.44049686667813e-06,-1.20173984443639e-05,-0.00608385317113935,-1.80045872806289e-05,-2.3038723662161e-05,2.11985822531346e-05,3.56530902578811e-07,3.82753524315049e-05,-5.54816770925726e-06,-2.00954276792231e-05,-1.76767266850675e-05,-0.000187532577253791,-8.12016132645255e-06,1.44049686667813e-06,-0.00232745451267302,-2.77815811609017e-05,1.31536987799663e-05,-1.20173984443639e-05,-0.0019204255725267,-0.00141128246887057,0.124971304675062,-7.06115959747677e-06,-1.76140565955052e-06,-0.00419027163997221,-4.642142385336e-05,-0.00150659868976,1.67869760447914e-05,9.26087733343905e-06,-2.4940656082606e-06,-0.00213344235578905,-6.02704782712848e-05,-0.00374280715308828,-0.00230090402873806,-0.00657699129462408,1.29995443236552e-05,-0.000682024184521346,-0.00173922020300488,-0.0134596568878544,1.03628364582775e-05,-0.000298915335131156,-9.76036892996746e-06,-0.00161501452290747,-3.37712608038387e-05,-0.00630879688846786,-1.80045872806289e-05,-3.04325589590704e-05,-0.00963557078320942,-0.00176329318529778,1.92618967123082e-05,-3.92797764359187e-06,-0.00140054915589083,-2.8679165039236e-05,-2.04347655783366e-05,-0.0017647261716327,-0.00168519844625159,-8.46771511575639e-06,-0.00196978607644649,-0.000754139750911875,-0.000424407693686568,-0.000825665381811724,-0.000824814143527419,-3.92797764359187e-06,-0.0017724737751097,-0.00621069714811995,-4.28001780239384e-06,-0.000986349747829962,-0.000793251381479898,-0.00412761113170834,-0.0047027108384512,-0.000240572020214103,-8.12016132645255e-06,-1.73459986978486e-05,-0.00248167365592167,-0.00221808995080242,-0.000975637132137663,2.17523128132058e-06,-0.00126346771735175,-0.00237307112621998,-0.00401544533588538,-0.00380499970567438,-0.000409181398030256,-1.01243012906593e-05,-0.00164747000633625,-0.000128668484351557,-1.25886104234141e-05,1.92618967123082e-05,-3.4602705754061e-05,-0.000987990539028871,-0.00484301619828198,-0.00104662279208245,1.16142797326191e-05,-0.00207389910642153
"19:17224165:C:T",-5.12860881229926e-06,5.29684376076034e-05,-7.1254747829208e-05,3.89390755106689e-06,-0.00319576051901738,-0.00037320616202674,-4.72953703747336e-05,-0.000727825710750807,-0.00300977922221346,9.59432490788004e-07,-7.06115959747677e-06,-1.60452792039578e-05,-5.28971310842508e-05,-4.65182537663367e-05,0.000133255441132185,-2.20281329070815e-05,3.89390755106689e-06,-0.00164474915712187,-7.1254747829208e-05,3.88009087393115e-05,-0.00333683695596765,-0.0012459843882997,-8.01303759701e-06,-7.06115959747677e-06,0.0857133805371708,-0.00160613984421953,0.000121714902751258,-0.000114224457119505,-2.02496379486661e-05,5.06268899354012e-05,2.6739408958143e-05,-7.06115959747677e-06,-2.16461872950546e-05,-0.00054707677166288,-0.00173636732796822,-0.00198838506180632,-0.000189467097719387,3.79910840653253e-05,-3.53196102089726e-05,-0.00153523630210906,-0.000165418057036959,3.00032959028584e-05,-0.000143124712865372,-0.00657975693152579,-0.00141962790516725,-8.53583487669951e-05,-0.00302085283816123,-4.72953703747336e-05,-1.39680384414476e-05,-0.000252747062166492,-0.00227780601088856,-2.37713032049669e-05,-1.08127263507285e-05,-4.49394442805229e-05,-7.32611015283879e-05,-0.00189987659593704,-0.000137730906619282,-0.00147510752092206,-2.29040689534443e-05,-0.00169961596817991,9.54801424644103e-05,-0.00243524312397358,-0.00215139130667286,-0.00173369818444957,-1.08127263507285e-05,-0.00233349881257983,-0.000728148116651894,-1.17277497375667e-05,-0.00227568528054967,-0.00216375195327689,-0.000248782428830197,6.07234345091356e-05,-3.99969164828207e-05,-2.20281329070815e-05,-4.57329874361534e-05,-0.00223303437890898,3.79910840653253e-05,-0.0043513831342743,5.89837369968649e-06,-5.82574578089634e-05,-0.00118952325940569,-0.000278242929100614,9.92558422865386e-05,-0.00767768972887151,-0.00017179349493901,-3.56250954594017e-05,-9.16770237804343e-05,-3.36625222461251e-05,-2.37713032049669e-05,-8.71593149138761e-05,3.76880092103349e-05,-0.010723835677334,-7.25995577077754e-05,-0.00242468888435088,-0.00181397544486295
"19:17224355:C:G",-0.00185801329549573,-0.00336973770244331,-2.19680911817122e-05,1.00286335324995e-06,-8.92041729283477e-06,-0.00493190273971766,-1.37546089939988e-05,-0.00426758347327816,1.19399481404159e-05,2.49982571531859e-07,-1.76140565955052e-06,-3.65961221318045e-05,-1.54592769314732e-05,-1.34850293571631e-05,1.07624155782915e-05,-5.93570354823214e-06,1.00286335324995e-06,-0.00249560963274043,-2.19680911817122e-05,8.25441374896485e-06,-0.00240921692737039,-0.00218002935344508,-2.02434457818867e-06,-1.76140565955052e-06,-0.00160613984421953,0.0915029903669171,-0.00766817837795131,-3.86278855195599e-05,-5.39888570738611e-06,-0.00101323484294902,-0.00370233935506192,-1.76140565955052e-06,-0.00212073809400781,-0.002050969235321,-0.00165065136055631,-1.5118176651896e-05,-7.46044044888095e-05,-0.00225847881582819,-9.93846523655861e-06,-7.17775576841717e-06,-0.000519898706246913,6.69193568292314e-06,-0.00129156394888597,-0.00258149051776346,-1.15466894010652e-05,-2.71961386690833e-05,-0.000493880683434256,-1.37546089939988e-05,-0.00191984461363504,4.57817197663246e-06,-0.000354943323491064,-6.46746926857844e-06,-2.80794073237445e-06,-1.2940412259077e-05,-2.27475968621604e-05,-0.00146637315788922,-0.00503374732780326,-4.31045924109696e-06,-6.20222274161364e-06,-0.00430650768684071,1.35309303948006e-05,-0.000739600948125307,-0.00183078737572639,-0.00205921415056842,-2.80794073237445e-06,1.12122022164485e-05,-4.24602774025118e-05,-3.06732684940414e-06,1.00792007691197e-05,-0.00403495671736032,-0.00752853130121522,1.14610842203433e-05,-0.00270575752106339,-5.93570354823214e-06,-1.32136331041366e-05,-0.000864167557113937,-0.000539572261101462,-2.74450880057842e-05,1.50688048705661e-06,-1.73973500698921e-05,-0.00209563770984911,-1.08364541411277e-05,1.35194490242796e-05,-0.000837332397404911,-7.46082279778904e-06,-9.81273874423039e-06,-0.00156324043252987,-9.39881963457623e-06,-6.46746926857844e-06,-2.79363677746503e-05,8.05764551969901e-06,-0.000639471775199851,-2.2489907567369e-05,-0.0020585514909488,-0.00195798078601328
"19:17224672:A:G",-0.00427907519618298,-0.00127266791623892,-0.0030431129944537,-9.25666874191933e-05,-3.54985226529436e-05,-0.00406747969213406,-0.000371586872469187,-0.00773027661669889,-0.00262829057793823,-1.02442256295632e-05,-0.00419027163997221,-0.000322744623909355,-0.00110948329727378,-0.00271263270437583,-0.00218031898371152,-0.00364847358679565,-9.25666874191933e-05,-0.000778235443388287,-0.0030431129944537,-0.00541745594394172,0.000174119645661719,0.000872710701253609,-0.0106542337609135,-0.00419027163997221,0.000121714902751258,-0.00766817837795131,0.292633430279992,-9.86286870849895e-05,-0.0037468034161483,-0.00246919908873178,-0.000964215547248237,-7.35981118564766e-05,-0.00177599115177163,-0.00244473721159322,-0.0210713519609698,-0.00229513205776044,-0.00179852124229685,-0.00437976593617861,-0.00105631303694764,-0.000484077616113687,-0.00109987782569831,-0.00289523855683704,-0.00773658891694273,-0.000230797413602879,-0.000329008314513324,-0.00358941945273195,-0.00436974369265641,-0.00114123938128419,-0.00113758468778746,-0.00254003059191943,-0.00293009245003617,-0.000676855797288489,-0.00181685399827813,-0.00144031616290796,-0.00815270442308869,-0.00360531495268734,-0.00225746981117814,-0.00159382017456089,-0.00217191505772352,-0.000249344084791048,-0.00402065506723215,-0.00509344668656686,-0.00479957817614673,-0.00214974342809748,-0.00181685399827813,-0.00585035703035963,-0.000771989441935794,-0.000331999416266271,-0.00571673874152268,-0.00573897290654113,-0.00741544466709021,-0.00039565613492254,-0.00440011851993205,-0.0027115953726522,-0.00419187892094808,-0.00386925388711123,-0.00150339427791479,-0.00320147155327088,-0.00340540028551217,-0.00231793487549403,-0.0109097856806089,-0.00800985718245428,-0.00291965741981448,-0.00256470711583923,-0.00279683110199347,-0.00382973199189518,-0.00438068913971978,-0.00453780443806551,-0.000676855797288489,-0.00434396466391629,-0.00124201463479157,-0.00635550707456334,-0.00604860376534155,-0.00259575121016908,-0.000726401128291254
"19:17224894:G:A",-3.86278855195599e-05,-0.00550137423447161,-0.000393051031562841,1.62726980379446e-05,-0.00434138184695065,0.000271574222961313,-0.000260702346723818,-0.000327933048807516,-0.00514035609185814,4.00078347961852e-06,-4.642142385336e-05,-0.000657611946707881,-0.00436111884280166,-0.000258053760983756,0.000793544700719906,-0.000124511282930229,1.62726980379446e-05,-3.59735296955321e-05,-0.000393051031562841,0.000215668402334224,-0.00463106314751638,-0.00161329155112266,-5.02521344989404e-05,-4.642142385336e-05,-0.000114224457119505,-3.86278855195599e-05,-9.86286870849895e-05,0.155931354012195,-0.000117692392334057,-0.00203000634341155,0.000146630029925099,-4.642142385336e-05,-0.00220848048602829,0.00056809332756913,-0.00618655071639074,6.89655787766696e-06,-0.00405231548784624,-0.00672333109370449,-0.000195136470462209,-9.83843403554729e-05,-0.0114021016671408,-0.00166145854331123,-0.00113854831894944,-0.000163626339167777,8.49974174421675e-05,-0.00046612367033827,-0.000225558715640783,-0.000260702346723818,-0.00290703253442626,-0.0126437511624902,-0.0109146623693421,-0.000131178534315879,-6.14888358603238e-05,-0.000945166574495282,-0.000471191780460067,-0.000308858989177985,-0.00457316911309125,-0.00133570351852885,-0.000127863545743345,-0.00347180849762108,0.00055809523479855,-0.000346619423849504,-0.00267149106891384,-0.00101748718125361,-6.14888358603238e-05,-0.00263107648881178,-0.00282837045468698,-6.51516104177574e-05,-0.00319236920112065,-4.05693589682343e-05,-0.0058494003320142,-0.00175610205741705,-0.00179695151705328,-0.000124511282930229,-0.000255374713423961,-0.0064116896930817,0.000197765764212043,-0.000576898117436997,2.46862571797735e-05,-0.00111368868423778,-0.000244034553059436,-0.00125496936483849,-0.00192745341327516,-0.00320531014874348,-0.000166945311569577,-0.000399341592125069,-0.00449936943209739,-0.000189121154463123,-0.000131178534315879,-0.000352622940325453,0.000210488861547731,-0.0110025075766984,-0.000583908268487754,-0.000350924180480661,-0.000658423074004766
"19:17225190:C:A",-0.00153963649188604,5.62183040102582e-05,-0.000736459329168326,4.07925330581094e-06,-3.43621837490815e-05,2.89869796370468e-05,-4.92327999896958e-05,-6.20356787965903e-05,7.01197275816412e-05,1.00456487217571e-06,-0.00150659868976,-0.00300794059028853,-0.00124482605659981,-4.84325002112485e-05,0.000144741419092043,-2.30349024539223e-05,4.07925330581094e-06,-0.000130262373581935,-0.000736459329168326,4.10502918004596e-05,-3.43621837490815e-05,-0.00345713928410962,-8.41039028998125e-06,-0.00150659868976,-2.02496379486661e-05,-5.39888570738611e-06,-0.0037468034161483,-0.000117692392334057,0.124255429381265,5.37095389434583e-05,2.8213105354169e-05,-7.41690773242709e-06,-6.61225691871437e-05,-0.00249319424988226,-0.00242880573100468,-0.00191410137330905,-0.00580221961683058,4.01525136304315e-05,-3.68408533502063e-05,-0.00328158233932729,-0.00641047565137676,3.16704549589986e-05,-0.00106533709877255,-2.7898569321394e-05,-0.00303134557738716,-0.000829206340425159,-0.00340268688949319,-4.92327999896958e-05,-1.46982718858268e-05,-0.00570416739299873,-0.00385976800956378,-2.48443839110379e-05,-0.00116175416392661,-4.68060681440008e-05,-0.000574092470858822,-5.58475487899557e-05,-0.00655845264442956,-0.00320568609638894,-2.39442834226722e-05,-0.00258582387354256,-0.00303358580983026,-0.00205780361043839,9.15937228205266e-05,-0.000282596208745822,-0.00116175416392661,6.27069054370821e-05,-0.00656880367685542,-1.22843831880104e-05,-0.00631619731629662,9.47069090146968e-05,-0.000382995995282798,6.45097597189448e-05,-0.00329890071162442,-2.30349024539223e-05,-0.000910977557402326,-0.00113301762307572,4.01525136304315e-05,-0.00452586535921995,-0.002805141658067,-6.05392276789019e-05,-0.00588000493822882,0.000104047565306686,0.000106617818462773,-0.00131176261892563,-0.00303359956338944,-0.00305615642563506,-9.47930724954915e-05,-0.000928740365036873,-2.48443839110379e-05,-0.00050263092403835,-0.00371695244726489,-0.00144113742758467,-7.52656836917609e-05,-0.000104000609017163,9.78842621099929e-05
"19:17225660:G:C",1.00930513138309e-05,-0.000165369944530092,0.000183840116459777,-1.3546913389284e-05,7.71698833545997e-05,-0.00721150533110748,0.000126280401453904,0.000157147270489766,-0.000209234402862357,-3.32644566825024e-06,1.67869760447914e-05,2.95644857617461e-05,0.000134064879009799,0.000123669575220475,-0.000473085482086688,5.9764340765156e-05,-1.3546913389284e-05,-6.36144882513179e-05,0.000183840116459777,-0.000118400890651849,7.71698833545997e-05,-0.0016087878786033,2.00732584065832e-05,1.67869760447914e-05,5.06268899354012e-05,-0.00101323484294902,-0.00246919908873178,-0.00203000634341155,5.37095389434583e-05,0.0909797696741608,-8.07357835537204e-05,1.67869760447914e-05,-0.000240688981438808,-0.0048748647742789,-0.00565492937512069,-0.000327267858950542,-0.000766462464014239,-0.000121941767323719,9.57921269320039e-05,6.64461594208632e-05,0.000181728981520912,-9.25658427348708e-05,-0.00339349360306063,6.64461594217514e-05,0.000104475650728908,0.000217956400333286,-0.00185247742670924,0.000126280401453904,-0.0128161482614937,-0.000232585868785939,-0.00112980801044937,6.56761595578814e-05,2.96980217022735e-05,0.000118352543259981,0.000190637464942078,0.000136759304008471,-0.00445700836050289,4.11497420511608e-05,6.273780487831e-05,-0.000245665162472264,-0.000313424010115249,-0.00192968114823877,-0.00333686868062877,-0.000282104951290663,2.96980217022735e-05,-0.000188524646127952,0.000341184888840829,3.28305482382163e-05,-0.000849925705368904,-0.000126247539685487,-0.00115876105106683,-0.00020170814809628,0.000101595043981106,5.9764340765156e-05,0.000121027148103359,-0.00149484236500097,-0.00512267615713213,0.000220042485053362,-2.0568864807835e-05,0.000152236559797458,-0.000838369804760042,-0.00330843177259688,-0.000334679601928123,-0.00695759226749892,-0.0011335597441553,-0.00431970363545719,-0.00440535824022792,9.02052480338256e-05,6.56761595578814e-05,0.000224139265919909,-0.00011430296087056,-0.00690601338478469,0.000188399130105488,-0.000112155465020969,-0.000313077402152473
"19:17226117:C:T",-0.000231476015674303,-8.51216320469916e-05,-0.0027426330818523,-6.55901922375079e-06,-0.00342125159151507,6.74914278366856e-05,6.53272134591987e-05,8.12632523077284e-05,-0.000437578967916963,-1.61023537437188e-06,9.26087733343905e-06,1.81002826709076e-05,7.05024940845789e-05,6.40990286200349e-05,-0.000636613671753494,3.11071634646609e-05,-6.55901922375079e-06,-2.62739438818826e-05,-0.0027426330818523,-6.09577816099716e-05,-0.00324354900642732,-0.0036964514655935,1.08426654872318e-05,9.26087733343905e-06,2.6739408958143e-05,-0.00370233935506192,-0.000964215547248237,0.000146630029925099,2.8213105354169e-05,-8.07357835537204e-05,0.113081034667934,9.26087733343905e-06,-0.000118615891292251,-0.00670478768585792,-0.00610165466615964,-0.002731566493825,-0.00130926226480987,-6.16464057685562e-05,4.95506872892904e-05,3.5624206434548e-05,-0.000337569279525773,-4.72461941249946e-05,0.000177485858868565,3.5624206434548e-05,5.50662989144968e-05,-0.00280381858087075,-0.00141519966229176,6.53272134591987e-05,-0.000491633243457912,-0.00510468077274684,-0.00981724933690753,3.39322234479411e-05,1.54741757896204e-05,6.15974342048631e-05,9.8392064494135e-05,7.17590345313823e-05,-0.00130662505378165,2.22076539859728e-05,3.25281634037111e-05,-0.00277105108071307,-0.000162654439084697,-0.00128655375594722,-0.000147533773445119,-0.000255688780558927,1.54741757896204e-05,-0.000763836831815468,-0.00317040305477523,1.69811899768391e-05,-0.00454857208238746,-0.00015346583829956,-0.000512020236048016,-0.00481235382803558,5.37101433186749e-05,3.11071634646609e-05,-0.0024894550073471,-0.00290167275419684,-6.16464057685562e-05,0.000113619465668791,-9.9602489340711e-06,7.89746329070695e-05,-0.000648822241779534,-0.00186546602839233,-0.00354627810465136,-0.0107475628053395,3.70962409199649e-05,4.66616875476333e-05,-0.00155923358926469,4.69005421033231e-05,3.39322234479411e-05,0.00011548429027286,-5.89409897067128e-05,-0.00540727227644666,9.73602145917241e-05,-0.00399459270301961,-0.00284785297618217
"19:17229461:T:G",-1.76140565955052e-06,1.75011014125204e-05,-0.000977783009572519,1.44049686667813e-06,-1.20173984443639e-05,-0.000895734767096812,-1.80045872806289e-05,-2.3038723662161e-05,-0.00327474891077006,3.56530902578811e-07,-2.4940656082606e-06,-0.00375403516501649,-0.00290781989559452,-1.76767266850675e-05,-0.00347902187212412,-8.12016132645255e-06,1.44049686667813e-06,-0.00407412654648631,-0.000977783009572519,1.31536987799663e-05,-1.20173984443639e-05,-0.00122096172170227,-2.85644279962582e-06,-2.4940656082606e-06,-7.06115959747677e-06,-1.76140565955052e-06,-7.35981118564766e-05,-4.642142385336e-05,-7.41690773242709e-06,1.67869760447914e-05,9.26087733343905e-06,0.102286543171153,-0.00440898576913096,-0.00272369696103958,-0.00749997954984671,-1.40405066844096e-05,-0.000243898668297327,1.29995443236552e-05,-1.32668453804996e-05,-0.000283677431625939,-0.00206193672104416,1.03628364582775e-05,-5.94406571057249e-05,-9.76036892996746e-06,-0.000179764559233853,-0.00106211455388827,-0.00287857284698312,-1.80045872806289e-05,-0.00235717753102538,-0.00272863579869043,-0.0064140301925768,-8.81258574292332e-06,-3.92797764359187e-06,-3.4498041019404e-05,-2.8679165039236e-05,-2.04347655783366e-05,-1.25766290111073e-05,-0.00270325976604635,-8.46771511575639e-06,-0.0001022680495808,-0.00202763600142841,-0.00722828642456363,2.64539195207192e-05,-0.000824814143527419,-3.92797764359187e-06,-0.0017724737751097,-0.00259063321609521,-4.28001780239384e-06,-0.000204461665212818,2.71510481661963e-05,-0.00230501000443351,-0.00211254928172622,-1.4947763575357e-05,-8.12016132645255e-06,-0.00116798320864042,-0.00274506801926755,-0.00205589854879218,-3.40511706671265e-05,2.17523128132058e-06,1.54006354327052e-05,2.61698532044718e-05,-0.00125200777158252,-0.00268953986275822,-0.00492108076420017,-0.00161784902122619,-0.00266995949813076,-3.61997882496468e-05,-1.25886104234141e-05,-8.81258574292332e-06,-3.4602705754061e-05,1.27926517832222e-05,-0.00190452896094673,1.39154927536467e-05,1.16142797326191e-05,-0.00457954476749478
"19:17229632:C:T",-0.00201277827716861,-0.00229703955963423,-0.00231662031750801,1.25656731349011e-05,-0.00197689415462765,-0.000826415637521283,-0.000922491366022626,-0.00307189660914275,-0.00228444601501021,-4.83233663572946e-06,-0.00213344235578905,-0.00474287181930855,-0.000836569191663195,-0.00433482768282811,-0.00103530105841987,-0.000426375925553835,1.25656731349011e-05,-0.00391413799411211,-0.00231662031750801,-0.000177967993217898,-0.00189170873947919,-0.0114346715210627,2.6418197184519e-05,-0.00213344235578905,-2.16461872950546e-05,-0.00212073809400781,-0.00177599115177163,-0.00220848048602829,-6.61225691871437e-05,-0.000240688981438808,-0.000118615891292251,-0.00440898576913096,0.238141835485009,-0.0133001919903331,-0.0119689503347371,-0.00286175979198777,7.15806719249201e-05,-0.000201467733817573,-0.00297980333606684,7.04377864311212e-05,-0.00543826316694274,-0.00309001928566044,-0.00541692756224865,-0.00144932980711143,-0.00172877644888914,-0.00243362973979266,-0.00387622838900414,-0.000922491366022626,-0.00282622451357017,-0.0127376097194052,-0.00621755832988402,8.64053377682694e-05,-0.00141072224969019,-0.000127136768742098,-0.00325094417888216,-9.43855730133336e-05,-0.00141986191278765,-0.00189020329198897,8.25669729733747e-05,0.000171681928793355,-0.000745133225828809,-0.00644321345558874,-0.000235586074969873,-3.15538578021801e-06,-0.00141072224969019,-0.0074742912079131,-0.00948802237157009,4.42053826024136e-05,-0.00408941200976054,-0.000267321014551847,-0.0049214906419297,6.60468759683397e-07,-0.00306806785616143,7.86569847592844e-05,-0.00285834908680549,-0.00282869941046782,-0.00255272869469181,-0.000937992281785149,-0.00274802783888894,-3.22751478298855e-05,-0.00231589063589555,-0.00432268093193588,-0.000870951176611179,-0.00191774973509906,-0.00203641684682321,-0.000349143367997407,-0.0167245465715578,-0.000308910940820972,8.64053377682694e-05,-0.00289532353451971,-0.00326648372111205,-8.83117858672122e-05,1.22365618020481e-05,-0.00333048088749965,-0.00267173852336011
"19:17230199:C:T",-0.00110649892300252,-0.00227544590969142,0.000291750789134237,-0.00272369988498866,-0.00537361563794514,-0.00230320538843021,-0.00338137809359829,-0.00145528092913327,-0.000999362783933755,-0.00404001965341827,-6.02704782712848e-05,-0.00079006226506273,-0.00178035012901923,-0.00408379081911825,-0.0013022410633674,-0.00496599328987291,-0.00272369988498866,-0.0130910168621807,0.000291750789134237,-0.00400380181708559,-0.000769943692462416,-0.00564531674357394,-0.00303779127168724,-6.02704782712848e-05,-0.00054707677166288,-0.002050969235321,-0.00244473721159322,0.00056809332756913,-0.00249319424988226,-0.0048748647742789,-0.00670478768585792,-0.00272369696103958,-0.0133001919903331,0.31221592551486,-0.00286274377048201,-2.81733554419183e-05,-0.00607128542685409,-0.00496879480245926,-0.000595838392537296,-0.00183078287926763,-0.0178577478633062,-0.00337493227175845,-0.000791834157782834,-0.0007907146697681,-0.003061051986188,-0.000891571715128325,-0.00611544341794001,0.000429888049877647,-0.00196375067930399,-0.0101517639236737,-0.00284206211391203,-3.46508392734535e-05,-0.00494039602695295,-0.00169682132506122,0.000162992155611441,-0.00271900933655411,-0.00976558275372641,-0.000815239747013585,-0.002167218550432,-0.00307279805316663,-0.000980787076032108,-0.00786877001359043,-0.00436446518312694,-0.0039629729269115,-0.00494039602695295,-0.00282785381746153,-0.00424208613804389,-1.23957519555518e-05,-0.0109111336043295,-0.00399288450710511,-0.00659256811864539,-0.00377354259200402,-0.00634134152153321,-0.00267874968723358,-0.00134302478905468,-0.00135940813114832,-0.00587149190464897,-0.000558166664797799,-0.00265155053910071,-0.000944126690941349,-0.00238038113799721,-0.00011927432840686,-0.000929416659726456,-0.00775598814047829,-0.00708099902707593,-0.00163819092664452,-0.00314854546425591,-0.00471962706265039,-3.46508392734535e-05,0.000387686488986461,-0.00774310831724279,-0.00716474300928605,-0.000548020242586489,-0.00265903535789169,-0.00168560797998341
"19:17230287:A:C",-0.0059561668519601,-0.000627906005880696,-0.00106246582939118,-0.00130876754357523,6.65296393917991e-05,-0.0065973572295821,8.23495409827402e-05,-0.00670331833886717,-0.00035658864657151,4.69441100037216e-06,-0.00374280715308828,-0.000416504963320463,-0.00213057369166725,-0.0105294832342064,-0.00224252326533092,-0.00656325951080117,-0.00130876754357523,-0.0112586710376266,-0.00106246582939118,0.000371336992521343,-8.75754935933948e-05,-0.0073817121044546,-0.00481517145398858,-0.00374280715308828,-0.00173636732796822,-0.00165065136055631,-0.0210713519609698,-0.00618655071639074,-0.00242880573100468,-0.00565492937512069,-0.00610165466615964,-0.00749997954984671,-0.0119689503347371,-0.00286274377048201,0.389509822809923,-8.98913309659299e-05,-0.00434604918849724,-0.00214104327720177,-0.00189333819270932,-0.00220987222475388,-0.00140684137933311,-0.0130780606298098,-0.00515675571539509,-0.00755828720659979,-0.00264442415084343,-0.000621797898015863,-0.00198230897947926,-0.0067686896300474,-0.00209894431032698,-0.00187759529875731,-0.0122019727079672,-0.000421168331173227,-0.00176685047801062,-0.00146145818113919,-0.00392233818119703,-0.00280593576980248,-0.00794050153796722,-0.00199123010907876,-0.00706142891925143,-0.000342630674260214,-0.00716375409476733,-0.0211388930056042,-0.000785939796206669,-0.00976657663069336,-0.00176685047801062,-0.000777689944243765,-0.0103370407957439,-0.000145952980193265,-0.00700873098940136,-0.000694246490068107,-0.00375376337060374,-0.00960574031120709,-0.000908728567923234,-0.00614615147446074,6.89588718820744e-05,-0.00161790299783116,-0.00131861019616597,-0.00521865181580772,-0.00190241240940026,-0.000144898893620571,-0.00228607693952343,-0.00081333351342705,-0.00826260435263126,-0.00283239389186463,-5.34246785308667e-05,-0.00198136658024195,-0.00718416234862396,-0.00776758070570338,-0.000421168331173227,-0.00430667446008659,-0.00774133760420348,-0.00114957450937903,-0.0025596695468435,-0.00039626871952736,-0.013299228866209
"19:17230372:C:A",-0.00073512395474129,-0.000348288684371312,-0.000260939724711307,-3.1014033814003e-05,-2.14933990045907e-05,-0.000210608841825,0.000246589809187014,0.000305037400642583,3.20920815051196e-05,-7.59263774341434e-06,-0.00230090402873806,-1.87769803261517e-07,-0.00133126574787923,-0.00129294491014775,0.000892421895763995,0.00011692921459705,-3.1014033814003e-05,-0.00275302061038207,-0.000260939724711307,-0.000246595315958054,-7.58593784011552e-05,-0.000268791434936411,-0.00189050706459248,-0.00230090402873806,-0.00198838506180632,-1.5118176651896e-05,-0.00229513205776044,6.89655787766696e-06,-0.00191410137330905,-0.000327267858950542,-0.002731566493825,-1.40405066844096e-05,-0.00286175979198777,-2.81733554419183e-05,-8.98913309659299e-05,0.119884570964274,-0.00119084131491487,-0.00013301404327315,-0.000996672794383535,-0.00379857831147135,-0.0065712409940808,-0.00134653088243741,-0.000839103270521946,-0.00184086100329761,-0.00181777408379613,-6.11583819063455e-05,0.000300453456095973,0.000246589809187014,-0.000987612828025064,-0.00267420188371448,-0.00336478945650676,-0.000357778273212261,5.83405231058265e-05,-0.00167260663113833,0.000368653424865251,0.000117146962523407,-0.000626845534494436,7.45377318942531e-05,0.00012365374006329,-0.000674089614979501,-0.000701196432846274,-0.0013774878113102,-0.00667461647609002,-0.00265024701985173,5.83405231058265e-05,-0.00405997546457826,-0.000979872703292806,6.5449877314272e-05,-0.00018681029211276,-0.00659205495795501,0.000175028181143233,1.38215761591454e-06,-4.39955040043571e-06,0.00011692921459705,-0.00640937109486295,-0.00310469762264676,-0.00485723421304041,-0.00103573046843053,-0.00261537690067826,-0.00146445723278443,-0.00360441541345313,-0.00441345849130315,0.000570596864776007,-0.00248214113207634,-0.00199980124863863,-5.20262695298257e-05,-0.000339232193661942,0.000175751622450093,-0.000357778273212261,0.000431565117878563,-0.000496205108048819,-0.0107469563997049,-0.00117109552008188,-0.000295411019322955,-0.000109777186698246
"19:17231611:G:T",-0.00602700721848404,-0.00108143924311133,-0.00388956278656405,1.65413738626441e-05,-0.0134610550852567,-0.000688331229302008,-0.000297713427292123,-0.00110583490887528,-0.00655606895102689,-1.45185291664518e-05,-0.00657699129462408,-0.000508157399766063,-0.000547028647908121,-0.00948094718441084,-0.0110852398355288,-0.000665616192160989,1.65413738626441e-05,-5.18836969436443e-05,-0.00388956278656405,-0.000997900670820506,-0.00668449732541276,-0.011668959767396,-0.000315090460484946,-0.00657699129462408,-0.000189467097719387,-7.46044044888095e-05,-0.00179852124229685,-0.00405231548784624,-0.00580221961683058,-0.000766462464014239,-0.00130926226480987,-0.000243898668297327,7.15806719249201e-05,-0.00607128542685409,-0.00434604918849724,-0.00119084131491487,0.303718094104735,-0.00227044311607916,-0.000729235076642354,-0.0027935335331799,-0.00450757030996396,-0.00127895853922055,-0.000978192931514243,-0.00834501817992095,-0.000591849418415613,-0.000665347570748764,-0.00649542617401622,-0.0050935723917549,-0.00523095758753289,-0.00802058798159466,-0.00468851995134312,-0.000142467405404467,-6.51843669636776e-05,-0.00721040718179822,-0.000462621051450895,-0.00381626446795558,-0.0123095714661443,-0.000638302742254737,-0.00256219194026119,-0.00191628725495008,-0.00236792993783119,-0.00339447842442198,0.000164203694978937,-0.000654782847499646,-6.51843669636776e-05,-0.00713575918979714,-0.00527595143654835,9.96274091171756e-05,-0.00374995892159902,0.000214043065740022,-0.00396457266627337,-0.00468839024824685,-0.00426996937042023,-0.000665616192160989,-0.00325571724683105,-0.00324511952709061,-0.0037683538138662,-0.000880769565146267,-0.00411772710076441,-0.00183350197990695,-0.00600102441721484,-0.00590971005099439,-0.00425903873030009,-0.00268777237654616,-0.00551593694637376,-0.00159089372234433,-0.00361792082679102,-0.000660544193952006,-0.000142467405404467,-0.00015732991165418,-0.000916696148198781,-0.00672363951041133,-0.00110952077413273,-0.00380532007052281,-0.00904119802260928
"19:17232033:G:A",8.18269929059312e-06,-0.000129004638191432,-0.00126203554284832,-0.00257428989318775,1.68447377131287e-05,-0.0029002307384296,9.18786081784972e-05,0.000113383203773409,-0.00016498684513877,-2.41860993366316e-06,1.29995443236552e-05,2.42137616170979e-05,-5.6723833390393e-06,9.01433627751302e-05,-0.00231894745553518,4.43853942853067e-05,-0.00257428989318775,-6.78334406387648e-05,-0.00126203554284832,-0.00468424092627018,-0.00184325255446716,-0.00262528425238795,-0.00183751338595428,1.29995443236552e-05,3.79910840653253e-05,-0.00225847881582819,-0.00437976593617861,-0.00672333109370449,4.01525136304315e-05,-0.000121941767323719,-6.16464057685562e-05,1.29995443236552e-05,-0.000201467733817573,-0.00496879480245926,-0.00214104327720177,-0.00013301404327315,-0.00227044311607916,0.123906562742819,7.02463116919461e-05,5.00966246308465e-05,-0.00428807243010354,-7.06962058272254e-05,0.000235188888715321,-0.00438089880806736,7.72893346487891e-05,-0.00131737552848499,-0.000208367535091902,9.18786081784972e-05,-0.00360448624356735,-0.00520601767543871,-0.00285647930802746,4.85023244101157e-05,2.22336970869819e-05,-0.0017410328066223,-0.00109260141409084,-0.0041609199910253,3.37445451350504e-05,-0.00204071390399108,4.64580596197806e-05,-0.00295491925297142,-0.000253590361936062,-0.00120152488043956,-0.00308365128291221,-0.00022680127368524,2.22336970869819e-05,-0.00268600115043771,-0.00669861077640999,2.44629102015281e-05,-0.00161919504612262,-0.000140861355656163,-3.38076403849641e-05,-0.0001746726156302,-0.0019053347976099,4.43853942853067e-05,-0.00150615037411583,-0.00324857714924986,-9.34269493875206e-05,0.000155939884903589,-0.00250835218895595,-0.00157476582003824,-5.12654985973526e-05,-0.000801542445217684,5.33770763198049e-05,-0.00345202960509461,-1.24140056856348e-05,-0.00196521382924697,7.92089542924757e-05,6.64406102890425e-05,4.85023244101157e-05,-0.00235534668701121,-8.81590223471562e-05,-0.00150661308839606,-0.00132700729125457,-0.000456908914563847,-0.00517655773933612
"19:17233295:C:G",-0.000713628592494686,0.000100263443318482,-0.00012486092379671,6.80587809753774e-06,-6.04963961698957e-05,-0.000143971967802692,-8.39381902650871e-05,-0.000105204752975929,0.000126066553775672,1.6736140322493e-06,-0.000682024184521346,-0.0015699109238474,-9.43872225791509e-05,-8.26835940772597e-05,0.000273067525373705,-0.000160262368548381,6.80587809753774e-06,-0.0016839457581721,-0.00012486092379671,7.26646350033278e-05,-6.04963961698957e-05,-8.91484941663023e-05,-0.000305754752185194,-0.000682024184521346,-3.53196102089726e-05,-9.93846523655861e-06,-0.00105631303694764,-0.000195136470462209,-3.68408533502063e-05,9.57921269320039e-05,4.95506872892904e-05,-1.32668453804996e-05,-0.00297980333606684,-0.000595838392537296,-0.00189333819270932,-0.000996672794383535,-0.000729235076642354,7.02463116919461e-05,0.0503784189245673,-4.88393177136004e-05,-0.00356054764597058,5.55168423748142e-05,-0.000241280138777888,-4.88393177127122e-05,-7.34892256568642e-05,-0.000148249029386704,-0.00292075717015283,0.000209787740361733,-0.000788795581004642,-0.00375871202204525,-0.00168799016610066,0.00199752102182948,-1.97045038135002e-05,-8.01314961691446e-05,-0.000127964927813196,-9.564623197722e-05,-0.000696735710826069,-3.06511720769009e-05,-4.1303914169788e-05,0.000135852696625527,0.000188426032097233,-0.000653234791959889,0.000165647357977861,-0.000760306397620703,-1.97045038135002e-05,0.000111888471020727,-0.00336515308285534,-2.12700145123534e-05,-0.00173142213161182,0.000171477927566777,-0.00185202229467052,0.000114279084419522,-0.00031680198071804,-3.98327263448905e-05,-8.14147770764606e-05,-0.00294760679661898,-0.00104200858397974,-0.000149165680902286,1.03233624999532e-05,-0.000102897282627801,-0.000710475830088875,-0.00573979342371,0.000195623286075808,-0.00287281975408327,-5.03431803577925e-05,-0.000580460757989343,-0.00015986814498703,-6.03981377258478e-05,0.00199752102182948,-0.000150967494261245,7.05925188517753e-05,-0.00169316421292454,-0.000126942113087836,-0.000870751323952312,-0.000828047251846264
"19:17235020:G:A",-0.00177170430800722,-0.00129940679383367,-0.00399017835879523,5.16767977121191e-06,-0.000115614081900084,-0.00222614036936353,-6.58020054640218e-05,-8.35817409319262e-05,8.54712220181852e-05,1.2748417654862e-06,-0.00173922020300488,-6.32941665230646e-05,-0.00240807161487488,-0.00404992671211968,-0.00472913711475886,-0.00393143401054008,5.16767977121191e-06,-3.05733792362872e-05,-0.00399017835879523,5.13207605656874e-05,-0.000237923876999169,-0.00238299450019053,-1.10338267074184e-05,-0.00173922020300488,-0.00153523630210906,-7.17775576841717e-06,-0.000484077616113687,-9.83843403554729e-05,-0.00328158233932729,6.64461594208632e-05,3.5624206434548e-05,-0.000283677431625939,7.04377864311212e-05,-0.00183078287926763,-0.00220987222475388,-0.00379857831147135,-0.0027935335331799,5.00966246308465e-05,-4.88393177136004e-05,0.147586001210755,-0.000267678625357259,-0.00252927945465409,-0.000440239485364202,-0.00556254768199782,-0.00013761053658623,-0.00377743641180395,-0.000269498449513073,-6.58020054640218e-05,-0.00226772656747176,-0.00296621142867393,-0.0119596082123752,-3.26591313104529e-05,-1.47846001983254e-05,0.00122451649401611,-0.000103126807054821,-0.00143202862552538,-0.00574605795893479,-0.000248766582457094,-0.00652996635834935,9.24345614006228e-05,-0.00203323438365999,-0.00748701252926587,0.000109300407226343,-0.00109495685670957,-1.47846001983254e-05,-4.01727902046289e-05,-0.00135004695969521,-1.60121444006123e-05,-0.00230898248436251,-0.00208944110176557,-0.00206023585498105,-0.00188888711769319,-5.5820350827851e-05,-0.00393143401054008,-0.00363452623015892,-0.000150181769070112,1.67241679296382e-05,-0.000737040265226696,-0.0022627462214917,0.000634264108264837,-0.000583899183109082,-0.0036273903825581,-0.00546930269257384,-0.000333043009710376,-0.000158835228852183,1.74073904029015e-05,-0.00578666954482898,-0.00371305927030718,-3.26591313104529e-05,-0.000123384533333493,4.99003098104467e-05,-0.000597537964103889,0.00123508288776808,4.39747063163409e-05,-0.00421110999393193
"19:17235597:C:T",-0.0066894282538259,-0.00135030864802133,-0.00108472393367887,-2.52102795039733e-05,-0.00418122449132508,-0.00818455784853223,-0.00101851414126131,-0.0050805545023378,-0.00256922601269594,9.73982608343249e-07,-0.0134596568878544,-0.00375885592086211,-0.00275494685679067,-0.00233919098520907,-0.00559013567270794,-0.00142219642542063,-2.52102795039733e-05,-0.00138484523972782,-0.00108472393367887,-0.00233302597620355,-0.00095811368051324,-0.0037840906896931,-0.00176089726535889,-0.0134596568878544,-0.000165418057036959,-0.000519898706246913,-0.00109987782569831,-0.0114021016671408,-0.00641047565137676,0.000181728981520912,-0.000337569279525773,-0.00206193672104416,-0.00543826316694274,-0.0178577478633062,-0.00140684137933311,-0.0065712409940808,-0.00450757030996396,-0.00428807243010354,-0.00356054764597058,-0.000267678625357259,0.318883387525844,-0.000585253123605689,-0.00618530907676051,-0.00332305151243162,-0.000378346208657288,5.55461185465234e-05,-0.00457115231882943,-0.000262231819093017,-0.00112897969285619,-0.000620835637602735,-0.00517185964065536,-0.000214084832782291,-8.97697251938112e-05,-0.00592952545965897,-0.000143958397178956,-0.000741809810536065,-0.00512735404684239,-0.00346452086446547,-0.00237246825078596,-0.00384912580060837,-0.00447350664837032,-0.00487326548833389,-0.00462404740716371,-0.00382562124676777,-8.97697251938112e-05,-9.14910960192472e-05,-0.00682191269831467,-0.00023432404015189,-0.00645461052286,-0.00482028877926055,-0.00108710634826181,-0.000882534313274785,-0.00463593284732822,-0.00314748480044713,-0.0064464275977274,-0.00289937327972911,-0.00298235013574466,-0.000320218967338803,-0.00309918231080353,-0.00754684863192523,-0.01148668098502,-0.00145119116322201,-0.00248714547102091,-0.00519789241758728,-0.00298061230418689,-0.00773065804844197,-0.00430961106430772,-0.00164382198909063,-0.000214084832782291,-0.00110033598929338,-0.00148012764244942,-0.00401588595877955,-0.00711978581160011,-0.00335079022630369,-0.000842544465184059
"19:17240244:A:G",6.69193568292314e-06,-0.00428064802103822,0.000105818395406132,-7.49452848403109e-06,-0.00245553022701284,-0.00334784161732937,7.2982642002728e-05,9.05241956070668e-05,-0.000588869594867703,-1.83806574138856e-06,1.03628364582775e-05,-0.00173341895956902,-0.0109367124538551,7.16117594921073e-05,-0.000288242277475703,3.49413505285057e-05,-7.49452848403109e-06,-0.00333748182297722,0.000105818395406132,-6.96807911948483e-05,-0.0025251753657809,-0.00354640910454851,1.21628615330494e-05,1.03628364582775e-05,3.00032959028584e-05,6.69193568292314e-06,-0.00289523855683704,-0.00166145854331123,3.16704549589986e-05,-9.25658427348708e-05,-4.72461941249946e-05,1.03628364582775e-05,-0.00309001928566044,-0.00337493227175845,-0.0130780606298098,-0.00134653088243741,-0.00127895853922055,-7.06962058272254e-05,5.55168423748142e-05,-0.00252927945465409,-0.000585253123605689,0.108211051962769,0.000194114018400526,3.98412641562373e-05,-0.00237784387673301,0.000124777776071561,-0.0002614882693317,7.2982642002728e-05,-0.0033681658153073,-0.000632090833319943,-0.00120848366545445,3.81303109788789e-05,1.74265591850187e-05,-0.00215361735834207,0.000109275324927438,-0.00211865750770723,-5.38867730695003e-05,2.48699967944077e-05,3.65458804241214e-05,-0.0029785618883782,-0.000188760758118356,-0.000193267425420807,-0.00329409052548169,0.000178422566100345,1.74265591850187e-05,-0.00110147553361717,-0.000951479540701072,1.91370806783553e-05,-0.00570527285532663,-0.00327679576953432,-0.000233305748197132,-8.78032479008084e-05,5.99843842490344e-05,3.49413505285057e-05,7.0223350518539e-05,-0.00290831522803536,-7.06962058272254e-05,0.000125818870199801,-1.13886629806714e-05,-0.00199209470682327,-0.00180967360252637,-0.00496874096622335,0.000555091455686885,-0.000186093746846971,4.15027831550674e-05,-7.42000045050872e-05,0.000129371472493034,5.25413771201855e-05,3.81303109788789e-05,0.000127861715419897,-6.73343776407265e-05,-0.00394897792228122,-0.00174909356339104,-6.39985199644144e-05,0.000237740201351144
"19:17246461:G:A",-0.000276351948934384,-0.00168216264520105,-0.00170848309483684,-0.00152325428504607,-0.00252999858323388,-0.00279288224738972,-0.000564620645052472,-0.00119265209365516,0.0004469529335136,4.4564753851617e-06,-0.000298915335131156,-0.000849251605603563,-0.000141625367821696,-0.00613431172324219,0.000526494230092212,-0.000154316511020269,-0.00152325428504607,-0.00786562577628303,-0.00170848309483684,-0.00331118074932313,-0.000271785548053849,-0.00525268648887778,-6.36658207744389e-05,-0.000298915335131156,-0.000143124712865372,-0.00129156394888597,-0.00773658891694273,-0.00113854831894944,-0.00106533709877255,-0.00339349360306063,0.000177485858868565,-5.94406571057249e-05,-0.00541692756224865,-0.000791834157782834,-0.00515675571539509,-0.000839103270521946,-0.000978192931514243,0.000235188888715321,-0.000241280138777888,-0.000440239485364202,-0.00618530907676051,0.000194114018400526,0.0977706588592531,3.09757275740452e-06,-0.000564215622535613,-0.000582966982120681,-0.00132205698666832,-0.000323309662079829,-0.000178141651612229,-0.00187046699598303,0.000530794986376204,-0.000161569359423908,-7.60583966759043e-05,-0.000314955496981462,-0.0004964535703742,-0.00121651344553442,-0.000475891519035265,-0.00122820714947558,-0.000157963302314101,0.000114394709727961,0.000669973488596654,0.000112719612677559,-0.00268149674622187,-0.00250183230411771,-7.60583966759043e-05,0.000390072162443467,-0.00165266543409626,-8.00975649166702e-05,0.000174555857357817,-0.00269180552256021,-0.00027235594170083,9.35414515526034e-05,-0.00124608460067233,-0.000154316511020269,-0.000317772335332478,-0.00252477730924694,0.000235188888715321,-0.00142704613305167,-0.00018348660043177,-0.000403150691445475,2.80322737467031e-07,4.65837269212344e-05,0.000678500466097631,-0.000159015710722965,-0.000211179052234556,-0.00112386019162525,0.00120790214707878,-0.000234858435364416,-0.000161569359423908,-0.000586700525858852,0.000255095466278554,-8.56118430370145e-06,-0.000494686456653071,-0.00127952413218146,0.000595781936568507
"19:17247006:C:T",-0.00167331882974509,6.9380005048636e-05,-0.000892837668883928,5.16767977121191e-06,-0.00134731309185021,-0.000336080394356397,-0.000732902481475506,-0.000815474399217031,8.54712220190734e-05,1.27484176726256e-06,-9.76036892996746e-06,-0.00014086593890017,-1.79305286343023e-05,-0.00416602345689299,0.000162502476009685,-3.0301375988806e-05,5.16767977121191e-06,-0.00116293718765714,-0.000892837668883928,-0.00128008696923754,-0.000350964458158742,-0.00292787640042835,-0.0012641372026696,-9.76036892996746e-06,-0.00657975693152579,-0.00258149051776346,-0.000230797413602879,-0.000163626339167777,-2.7898569321394e-05,6.64461594217514e-05,3.5624206434548e-05,-9.76036892996746e-06,-0.00144932980711143,-0.0007907146697681,-0.00755828720659979,-0.00184086100329761,-0.00834501817992095,-0.00438089880806736,-4.88393177127122e-05,-0.00556254768199782,-0.00332305151243162,3.98412641562373e-05,3.09757275740452e-06,0.138860935407569,-0.00594261143015373,-0.00331018242934711,-0.00025891214941387,-6.58020054640218e-05,-1.9929571664079e-05,-0.0014217673478889,-0.00298809265229405,-3.26591313086766e-05,-1.47846001974372e-05,-6.25761291175309e-05,-0.000103126807053933,1.88390287254592e-05,-0.00880564049679755,-0.00154625756849924,-3.14858099752513e-05,5.67293807529623e-05,0.000121009776695935,-0.00698288258678037,-0.00201916971868332,0.000103151714780481,-1.47846001974372e-05,7.69068315582544e-05,-0.000631244782570928,-1.60121444006123e-05,0.000114694659113734,-0.00199105562350343,-9.70349224562739e-05,-0.00204128597142983,-0.00143419979341264,-3.0301375988806e-05,-0.00105775747818004,-0.00863998229248431,-0.00202752141666274,-0.000905428528954921,-0.00237884296626589,-0.00116561339323962,2.7441754761881e-05,-0.00138046052900798,-0.00155166517436456,-0.00523232131209683,-0.00279429862749048,-0.00152692480893002,-0.00166539519288378,-4.6582626252345e-05,-3.26591313086766e-05,-0.000123384533333493,4.9900309812223e-05,-0.00561538962802377,-0.000963065184826917,3.47682130996674e-06,-0.00199367920127358
"19:17248185:G:A",-0.0016462209447603,-0.0014269888675198,-0.00420573611150754,7.59892558566122e-06,9.19231342795257e-05,-0.00138138721657644,-9.85198009280097e-05,-0.000124493108594415,0.000135722180318432,1.87148827279771e-06,-0.00161501452290747,-0.000108945132625493,-0.00260387921233818,-0.00424905915077911,-0.00311539956682783,-0.00411395402275705,7.59892558566122e-06,-0.000235965265360072,-0.00420573611150754,8.00126708986326e-05,-0.000630287349121517,-0.00178176875688685,-1.71471198138207e-05,-0.00161501452290747,-0.00141962790516725,-1.15466894010652e-05,-0.000329008314513324,8.49974174421675e-05,-0.00303134557738716,0.000104475650728908,5.50662989144968e-05,-0.000179764559233853,-0.00172877644888914,-0.003061051986188,-0.00264442415084343,-0.00181777408379613,-0.000591849418415613,7.72893346487891e-05,-7.34892256568642e-05,-0.00013761053658623,-0.000378346208657288,-0.00237784387673301,-0.000564215622535613,-0.00594261143015373,0.138612402863791,-0.0040017812936668,-0.000188209223849878,-9.85198009280097e-05,-0.0024486283617744,-0.00200264430166319,-0.0103591294229362,-4.93639334404605e-05,-2.25780727642899e-05,0.00121608392564365,-0.00015266207493525,-0.00133977467458202,-0.00584482592719748,-0.000379853343333458,-0.006712931383829,0.000145591490285035,-0.001989267204352,-0.00634633006475305,0.000175315614682425,-0.000784240670549607,-2.25780727642899e-05,-2.80529917402461e-05,-0.00196891061570792,-2.43520230887029e-05,-0.00192027240053916,-0.00189017887271525,-0.00254220020364126,-0.00158547292370148,-8.47139472179848e-05,-0.00411395402275705,-0.00383330770209511,-0.000193665212055549,1.18837270886019e-05,-0.000826190771086921,-0.00242615547615888,0.000617390571457932,-0.000747444936333608,-0.000587530525918645,-0.00512414185593535,-0.000345964866882653,-6.93650550793734e-05,4.55834055088644e-05,-0.00621095204185718,-0.00390364717004488,-4.93639334404605e-05,-0.000181570483817062,7.7809027243525e-05,-0.000308895289813371,0.00143166596558064,6.69211174191275e-05,-0.00387277976855138
"19:17249173:G:A",-2.71961386690833e-05,0.000227121368792993,-0.000353753783435273,1.35938548915249e-05,-0.000154016081306274,-0.0027276043686717,-0.000197881489937046,-0.000248789538409788,0.000285009944360759,3.34277282298956e-06,-3.37712608038387e-05,-0.00102469749759582,-0.000229155189536812,-0.0053536806256762,-5.16362730467179e-05,-9.41492752364326e-05,1.35938548915249e-05,-0.00233195888792981,-0.000353753783435273,0.000165398156678265,-0.00112146801860735,-0.00133764463939112,-3.70036621450964e-05,-3.37712608038387e-05,-8.53583487669951e-05,-2.71961386690833e-05,-0.00358941945273195,-0.00046612367033827,-0.000829206340425159,0.000217956400333286,-0.00280381858087075,-0.00106211455388827,-0.00243362973979266,-0.000891571715128325,-0.000621797898015863,-6.11583819063455e-05,-0.000665347570748764,-0.00131737552848499,-0.000148249029386704,-0.00377743641180395,5.55461185465234e-05,0.000124777776071561,-0.000582966982120681,-0.00331018242934711,-0.0040017812936668,0.0877505369150016,-0.000460718517129255,-0.000197881489937046,-0.000109947078216877,-0.000607006773368113,-0.00471847752049914,-9.98484767471552e-05,-0.000726894038904469,-0.000190762769257447,-0.000302799989007951,-0.000231441255939657,-0.000645561613088041,-0.0038418217424887,-9.70146603451738e-05,-0.000927380653317655,0.000426386516289234,-0.00295404128839927,-0.0026802778108479,0.000330255193953022,-0.000726894038904469,0.00025094200650333,-0.000874452592580788,-4.95795977624169e-05,0.000339130025679424,-0.00268412808952778,-0.0034501648898404,0.000250278936372084,-0.000706140100635189,-9.41492752364326e-05,0.0014701575399334,-0.00374369111168082,-0.000318908803183859,-0.000354617236238752,2.061978884349e-05,-0.000244602838916919,-0.00297320559437342,4.21785101014649e-05,0.00043722821833736,-0.00178780984483984,-0.000971092757538372,-0.00389056996404058,-0.00426885734584204,-0.000565354140909413,-9.98484767471552e-05,-0.000357578404067027,0.00016116895068663,-0.00194073183384358,-0.00030101885559386,-0.00139381388946891,0.000390528350905583
"19:17252151:T:C",-0.0076086003359106,-0.00406972132149175,-0.000879034230956588,-0.00249999347357033,-0.00405560115158909,-0.00478829493232835,-0.00544827396047687,-0.00234084873993456,-0.00444139320665293,4.78566836026317e-06,-0.00630879688846786,-0.00113316359549787,-0.00826468807994951,-0.000475408067819316,-0.00288545530673101,-0.0101413733979951,-0.00249999347357033,-0.00178694986430061,-0.000879034230956588,-0.00360443593472759,-8.31767186046939e-05,-0.00107389270141356,-0.0002148044884418,-0.00630879688846786,-0.00302085283816123,-0.000493880683434256,-0.00436974369265641,-0.000225558715640783,-0.00340268688949319,-0.00185247742670924,-0.00141519966229176,-0.00287857284698312,-0.00387622838900414,-0.00611544341794001,-0.00198230897947926,0.000300453456095973,-0.00649542617401622,-0.000208367535091902,-0.00292075717015283,-0.000269498449513073,-0.00457115231882943,-0.0002614882693317,-0.00132205698666832,-0.00025891214941387,-0.000188209223849878,-0.000460718517129255,0.264964065103324,-0.00397143473214623,-0.000732043346269862,-0.00823608437522516,-0.00178322231767947,-8.57597655938847e-05,-0.00498029886476203,-0.00285751745371066,-0.000988166214438202,-0.00529324422172639,-0.0019988310193515,-0.000841724723545045,-0.00217784451305381,-0.00149817016234666,-0.00379880354900219,-0.00237204756200304,-0.00274090167408625,-0.00486073302817713,-0.00498029886476203,-0.00202720704680859,-0.00407729951879743,-0.000136611703013045,-0.00773932336168315,-0.00272579133606055,-0.00338982555880829,-0.0033059150673882,-0.00185849746839306,-0.00268519999647854,-0.00333757018406367,-0.00217772923085446,-0.000529359739565027,-0.001931028214603,-8.71962645376811e-06,-0.00316646820389144,-0.00446772132271844,-0.00193944047819716,-0.000490383413280338,-0.00328829701337696,-0.00343244725148484,-0.00386030910940871,3.26999145445761e-05,-0.00607421359874927,-8.57597655938847e-05,-0.00145522105654017,-0.00352757679232329,-0.00781216268241591,-0.00390976161878864,-0.000827593932032578,-0.00245617213702776
"19:17252279:A:T",-1.37546089939988e-05,0.000132026587905898,-0.000166645255844422,8.70903365690623e-06,-0.00489464018879815,-0.00195223501463282,-0.000111725494690518,-0.000140152656141979,0.000165899797755387,2.14169470780234e-06,-1.80045872806289e-05,-0.00173984380397485,-0.000639777578497203,-0.000110139902356643,-0.00160833325849552,-5.30432693999217e-05,8.70903365690623e-06,-0.00200430794821749,-0.000166645255844422,-0.00342381099959077,-8.20990921628351e-05,-0.00463989518732699,-2.00940815213713e-05,-1.80045872806289e-05,-4.72953703747336e-05,-1.37546089939988e-05,-0.00114123938128419,-0.000260702346723818,-4.92327999896958e-05,0.000126280401453904,6.53272134591987e-05,-1.80045872806289e-05,-0.000922491366022626,0.000429888049877647,-0.0067686896300474,0.000246589809187014,-0.0050935723917549,9.18786081784972e-05,0.000209787740361733,-6.58020054640218e-05,-0.000262231819093017,7.2982642002728e-05,-0.000323309662079829,-6.58020054640218e-05,-9.85198009280097e-05,-0.000197881489937046,-0.00397143473214623,0.0752084117864404,-0.000953772162893607,-0.0028296414893223,-0.00164405031712711,-5.67702356795152e-05,-2.62252455280887e-05,-0.000527319193081688,7.03412801605907e-06,-0.00057976106528379,-0.000874554545241324,-0.000757139447600252,-5.49170180601521e-05,-0.00209742429921977,0.000247940527443369,-0.00463325312286411,0.000216751430468953,0.000199587702538473,-2.62252455280887e-05,0.000146963095214225,-0.00422985344636295,-2.82244393945419e-05,-0.00337910971363886,0.000224237375396896,-0.00208440969946455,0.000149235452941987,-9.67814133785438e-05,-5.30432693999217e-05,-0.000108536336870024,-0.00076305865209747,-0.00117515764584919,-0.000199013097113898,1.32097817280297e-05,-0.000415108610630099,0.000200580706671616,-0.00110737282653606,0.00025660334550448,-0.00067621163742615,-0.000711618911846124,-0.00166371983701374,-0.000214862839895247,-8.04735325585781e-05,-5.67702356795152e-05,6.20376219577778e-05,9.31514437487735e-05,-0.000660783331276171,-0.000224348956667342,-0.00472524528338347,0.000231908862272867
"19:17258320:C:T",-0.000838161781223867,-0.00245638345382204,-0.000163738001407232,5.75615668285678e-06,-0.00736607852791593,-0.00650458612182536,-0.000953772162893607,-0.00103054264207447,-0.00387308921945895,6.3528531502044e-07,-3.04325589590704e-05,-0.00266471136648594,-0.00128275809617406,-0.0011463449566822,-0.00737768167536412,-1.61520330159703e-05,5.75615668285678e-06,-0.00371918161920171,-0.000163738001407232,1.9172002097001e-05,-0.00708747921266362,-0.00565685927801596,-0.00150855157419461,-3.04325589590704e-05,-1.39680384414476e-05,-0.00191984461363504,-0.00113758468778746,-0.00290703253442626,-1.46982718858268e-05,-0.0128161482614937,-0.000491633243457912,-0.00235717753102538,-0.00282622451357017,-0.00196375067930399,-0.00209894431032698,-0.000987612828025064,-0.00523095758753289,-0.00360448624356735,-0.000788795581004642,-0.00226772656747176,-0.00112897969285619,-0.0033681658153073,-0.000178141651612229,-1.9929571664079e-05,-0.0024486283617744,-0.000109947078216877,-0.000732043346269862,-0.000953772162893607,0.160942408457332,-0.00282477506833434,-0.00143987976395721,-1.75963221105135e-05,-7.48771348568766e-06,-0.00151155842215367,-0.00106254243854131,-0.0027077816740988,-0.000149802118599496,-4.86435534581275e-05,-1.68753989422399e-05,-0.00171098559012695,-0.00211286839793878,6.95035354669749e-05,-0.00759334178677751,-0.000447249025544494,-7.48771348568766e-06,-0.00199693336061646,-0.00420378655879849,-8.17288999144239e-06,-0.000795967359885186,-0.00444782432855551,-0.0012993835144437,2.48222187950731e-05,-0.000242444977724965,-1.61520330159703e-05,-0.000435425930652045,-0.00241021204363845,-9.05529855543818e-06,-0.00362721533606347,3.79475151923714e-06,-0.00138131275552755,-0.00536729492914123,-0.000872627871591369,-0.000106953873850735,-0.00361750834032604,-7.15522980740957e-05,0.000205521254592611,6.24604076060464e-05,-2.60547764705521e-05,-1.75963221105135e-05,-0.00125485627374999,1.88002246108709e-05,-0.00203753693889031,-0.00117286496793501,2.61481089935955e-05,-7.03025772352817e-05
"19:17263232:G:T",-0.00760144664641693,-0.002867878306958,-0.00143255315684865,-4.30578340022691e-05,-0.00571453896507323,-0.0041643067194217,-0.00102354229017987,-0.00583444670020405,-0.000196616031883146,3.60578836122727e-06,-0.00963557078320942,-0.00140037253943426,-0.00146398142123028,-0.0015003356113974,-0.0063483586359605,-0.00181716011321864,-4.30578340022691e-05,-0.00983071819179138,-0.00143255315684865,-0.000354072661565397,-0.00118318255555572,-0.00476862043645232,-0.00181188418429823,-0.00963557078320942,-0.000252747062166492,4.57817197663246e-06,-0.00254003059191943,-0.0126437511624902,-0.00570416739299873,-0.000232585868785939,-0.00510468077274684,-0.00272863579869043,-0.0127376097194052,-0.0101517639236737,-0.00187759529875731,-0.00267420188371448,-0.00802058798159466,-0.00520601767543871,-0.00375871202204525,-0.00296621142867393,-0.000620835637602735,-0.000632090833319943,-0.00187046699598303,-0.0014217673478889,-0.00200264430166319,-0.000607006773368113,-0.00823608437522516,-0.0028296414893223,-0.00282477506833434,0.332114228543427,-0.00351610670863955,-0.000578468933973397,-0.00133223625816736,-0.00388424571002144,-0.000698897200336113,0.000158425508026916,-0.00787279780188621,-0.000787636229764743,-0.000894980492636144,-0.00283484000927547,-0.00408384027200359,-0.00584846494954361,-0.005893152258448,-0.00156091386506407,-0.00133223625816736,-0.00106201654186044,-0.00415300288932618,-6.61480006485249e-05,-0.00399804046774044,-0.00604055491506372,-0.00359422486044325,-0.000546839960791967,-0.00221755068618679,-0.00140937590954326,6.24173965837471e-05,-0.00853499437545224,-0.00106980226933517,-0.000869298416348752,-0.00242270996852589,-0.00530409046803859,-0.0142698623263122,-0.0041673266433202,-0.000530267276450225,-0.0108521334402267,-0.00383458409864579,-0.00685331244805454,-0.00601061920399815,-0.00179345399000663,-0.000578468933973397,-0.00148709875294628,-0.00148551295059995,-0.0087208989280505,-0.0051562054241483,-0.00666577235522015,0.000218165005780424
"19:17264963:C:T",-0.000312607332016768,-0.00237659470924623,-0.00530594712518972,-0.00222290994424146,-0.00605543413511667,-0.00302313128546583,-0.00297391530368074,-0.00469258690885166,-0.00562022991195033,4.89448392926306e-06,-0.00176329318529778,-0.000708190485191107,-0.0114257361182197,-0.00322884717795269,-0.00173231325336731,-0.0014532376706633,-0.00222290994424146,-0.00686461586721832,-0.00530594712518972,-0.00398012446571094,-0.00155722980808459,-0.00417975470884979,-0.000597183987362193,-0.00176329318529778,-0.00227780601088856,-0.000354943323491064,-0.00293009245003617,-0.0109146623693421,-0.00385976800956378,-0.00112980801044937,-0.00981724933690753,-0.0064140301925768,-0.00621755832988402,-0.00284206211391203,-0.0122019727079672,-0.00336478945650676,-0.00468851995134312,-0.00285647930802746,-0.00168799016610066,-0.0119596082123752,-0.00517185964065536,-0.00120848366545445,0.000530794986376204,-0.00298809265229405,-0.0103591294229362,-0.00471847752049914,-0.00178322231767947,-0.00164405031712711,-0.00143987976395721,-0.00351610670863955,0.343183727589496,0.000124155643220547,-0.0012185336305075,-0.0104345000649797,-0.000471875230688923,-0.0011978412355611,-0.000788891753197074,-0.0021928694807869,-0.00269591276458314,0.000486147036960816,-0.0032802051595171,-0.00243937044062914,-0.0011634654773327,-0.00147657293158554,-0.0012185336305075,-0.000587031440744568,-0.00452755517625825,-0.000117734537264269,-0.00266756936151502,-0.00236082093587164,-0.00496851248764729,-0.000521234814527372,-0.000400876337427025,-0.00707327806552538,-0.0011352080486704,-0.0100593711329182,-0.00120215670175705,-0.00112721653956704,2.90042089101661e-05,-0.0117635015162438,-0.00509937895887935,-0.000115660739846923,-0.000716772094837559,-0.00828473661227269,-0.0120879373614002,-0.00281136254978698,-0.00407625645439369,-0.00370919176885653,0.000124155643220547,-0.000652242906706846,-0.00634067222322265,-0.0108481607940516,-0.00928497109355142,-0.00297235438597188,-0.00467986715550062
"19:17265805:G:A",-1.33953126804087e-05,6.88250829199433e-05,-8.41479207913665e-05,4.78936667658303e-06,-4.01492308013118e-05,-8.99670236655936e-05,-5.67702356795152e-05,-7.10600333526656e-05,8.66448087570859e-05,1.17754508988099e-06,1.92618967123082e-05,-2.00747858825068e-05,-6.33621268351092e-05,-5.58811676780735e-05,0.000189188327115453,0.000549447409471604,4.78936667658303e-06,1.11911762514794e-05,-8.41479207913665e-05,4.97815817093183e-05,-4.01492307995355e-05,-5.53210070597387e-05,0.000396049179891556,1.92618967123082e-05,-2.37713032049669e-05,-6.46746926857844e-06,-0.000676855797288489,-0.000131178534315879,-2.48443839110379e-05,6.56761595578814e-05,3.39322234479411e-05,-8.81258574292332e-06,8.64053377682694e-05,-3.46508392734535e-05,-0.000421168331173227,-0.000357778273212261,-0.000142467405404467,4.85023244101157e-05,0.00199752102182948,-3.26591313104529e-05,-0.000214084832782291,3.81303109788789e-05,-0.000161569359423908,-3.26591313086766e-05,-4.93639334404605e-05,-9.98484767471552e-05,-8.57597655938847e-05,-5.67702356795152e-05,-1.75963221105135e-05,-0.000578468933973397,0.000124155643220547,-0.00449573708013418,-1.33470886165554e-05,-5.40724595605724e-05,-8.63684702521184e-05,-6.42582415091297e-05,2.11790334354589e-05,-2.04776131225159e-05,-2.79920740915429e-05,9.43536343358531e-05,0.00012971187580213,9.58370605124159e-05,0.000114596548783652,-0.000110853617740325,-1.33470886165554e-05,7.70170405894888e-05,4.48555564869224e-05,-1.4449520564952e-05,4.4980518500104e-05,0.000118721612947681,-8.91392864259544e-05,7.91120372509724e-05,0.000414409384315029,-2.69545694324691e-05,-5.49819670476737e-05,0.000111431299083975,-0.000366905349478586,-0.000100509303057272,7.26548056384502e-06,-6.94183076381805e-05,-6.17659244666058e-05,0.00104573515698902,0.000135110034054975,0.000161949146802343,-3.37225135389474e-05,-4.33335279588221e-05,-0.000106921318558939,-4.08301794738719e-05,0.00364785420513503,-0.000101808203140763,4.83234858474901e-05,-0.000129555744560861,-8.56367947248415e-05,4.22741010979166e-05,-0.000185860586836561
"19:17268392:A:G",-2.80794073237445e-06,3.11363763598749e-05,-0.000640911485645823,2.27137522479381e-06,-1.80567194503212e-05,-0.00134573202134192,-2.62252455280887e-05,-3.29150468694195e-05,3.9035576069324e-05,5.58912898185326e-07,-3.92797764359187e-06,-0.00552190464815894,-2.90816815784467e-05,-2.57868147164331e-05,8.32169020315021e-05,-0.00197761063589486,2.27137522479381e-06,-0.00144796983380679,-0.000640911485645823,2.2602327941712e-05,-1.80567194503212e-05,-0.00157833841682997,-4.4789751258989e-06,-3.92797764359187e-06,-1.08127263507285e-05,-2.80794073237445e-06,-0.00181685399827813,-6.14888358603238e-05,-0.00116175416392661,2.96980217022735e-05,1.54741757896204e-05,-3.92797764359187e-06,-0.00141072224969019,-0.00494039602695295,-0.00176685047801062,5.83405231058265e-05,-6.51843669636776e-05,2.22336970869819e-05,-1.97045038135002e-05,-1.47846001983254e-05,-8.97697251938112e-05,1.74265591850187e-05,-7.60583966759043e-05,-1.47846001974372e-05,-2.25780727642899e-05,-0.000726894038904469,-0.00498029886476203,-2.62252455280887e-05,-7.48771348568766e-06,-0.00133223625816736,-0.0012185336305075,-1.33470886165554e-05,0.0444418663381514,-2.48953956205611e-05,-4.01495150139652e-05,-2.9527275020591e-05,-1.894139877745e-05,-9.22478581433239e-06,-1.28510196741871e-05,4.29432885402647e-05,5.77393627834155e-05,-0.00140462338120972,5.15788337116518e-05,4.85747322018781e-05,0.000367100882473714,3.48679866224444e-05,-0.00144461576425492,-6.62502903825413e-06,-0.00158004272049617,5.34150043041137e-05,-1.00226924537594e-06,3.60373707044559e-05,-2.20986946128932e-05,-1.23496354875741e-05,-0.000827555807192404,-8.80672171188479e-05,2.22336970869819e-05,-4.68260636061757e-05,3.44374315197626e-06,-3.20964504529897e-05,5.03833319172031e-05,-0.000141197215576483,6.02831700788897e-05,-0.000168477270862333,-1.53015763073583e-05,-1.9617094070945e-05,-4.94994074529131e-05,0.000367100882473714,-1.33470886165554e-05,-4.74918082407072e-05,-0.00660954440466366,-0.000228830766448418,-3.97798986471187e-05,1.95957351669662e-05,5.52939008207076e-05
"19:17271397:A:T",-0.00143137288283501,-0.00186436974949533,-0.00016020986858134,8.31103193466021e-06,0.000164778673426014,-0.0064603106765766,-0.000106914491039056,-0.000134448045061575,0.000154938040911823,2.04477934051539e-06,-0.00140054915589083,-0.000242020262880338,-1.13865906667954e-05,-0.000105370966004159,-5.19312263831395e-05,-5.04786366022358e-05,8.31103193466021e-06,-0.000431510506528454,-0.00016020986858134,9.00685091851372e-05,3.68940321253675e-05,-0.00349130031599554,-1.90152092702789e-05,-0.00140054915589083,-4.49394442805229e-05,-1.2940412259077e-05,-0.00144031616290796,-0.000945166574495282,-4.68060681440008e-05,0.000118352543259981,6.15974342048631e-05,-3.4498041019404e-05,-0.000127136768742098,-0.00169682132506122,-0.00146145818113919,-0.00167260663113833,-0.00721040718179822,-0.0017410328066223,-8.01314961691446e-05,0.00122451649401611,-0.00592952545965897,-0.00215361735834207,-0.000314955496981462,-6.25761291175309e-05,0.00121608392564365,-0.000190762769257447,-0.00285751745371066,-0.000527319193081688,-0.00151155842215367,-0.00388424571002144,-0.0104345000649797,-5.40724595605724e-05,-2.48953956205611e-05,0.120076212458574,-0.000164013470498325,-0.000122706453921317,-0.000276311633649051,-0.00324787112462488,-5.22852327184964e-05,-0.00142145374209601,-0.00106415689819794,-0.0132801752175258,-0.00167578006941049,-0.00967779509488409,-2.48953956205611e-05,0.000137605116496076,-0.0072142317481303,-2.68138113037608e-05,-0.00467894256820234,-0.00164389950479915,-0.00178292116125522,-0.00248497594357744,-9.23777431749429e-05,-5.04786366022358e-05,-0.000103810221549594,-0.000193043778485169,-0.0017410328066223,-0.00470660060172623,1.26020255066805e-05,0.000222982379026071,1.40881659502767e-05,-0.000592467602026581,0.000237623694272493,-0.000119852064821124,-0.00275267347074593,-0.000299988288484876,-0.000207344454766556,-7.67748250751765e-05,-5.40724595605724e-05,-0.000194074795841992,8.75711553973701e-05,-0.000116511855512869,-0.00204262832152402,7.44921884470173e-05,0.000215641931827548
"19:17271457:A:G",-2.27475968621604e-05,-0.00322519413414923,-0.000255236241666346,1.22380341469608e-05,-0.000130443784252421,-0.00186819386757087,-0.000170516786623942,-0.000212336672488433,0.000249919594196513,3.00914703288413e-06,-2.8679165039236e-05,-7.21776354595249e-05,-0.000195970691091674,-0.000168373623409934,-0.00065902421535835,-8.1213304108374e-05,1.22380341469608e-05,-0.00321902445516109,-0.000255236241666346,0.000144527677286455,-0.000130443784251533,-0.000600785305582718,-3.15950248932495e-05,-2.8679165039236e-05,-7.32611015283879e-05,-2.27475968621604e-05,-0.00815270442308869,-0.000471191780460067,-0.000574092470858822,0.000190637464942078,9.8392064494135e-05,-2.8679165039236e-05,-0.00325094417888216,0.000162992155611441,-0.00392233818119703,0.000368653424865251,-0.000462621051450895,-0.00109260141409084,-0.000127964927813196,-0.000103126807054821,-0.000143958397178956,0.000109275324927438,-0.0004964535703742,-0.000103126807053933,-0.00015266207493525,-0.000302799989007951,-0.000988166214438202,7.03412801605907e-06,-0.00106254243854131,-0.000698897200336113,-0.000471875230688923,-8.63684702521184e-05,-4.01495150139652e-05,-0.000164013470498325,0.0417326510680924,-0.000198076300054417,-0.000890259297253948,-0.000742293300317165,-8.3805192780062e-05,-0.00392028774934605,0.000374775552209883,-1.6650936718321e-05,0.000323176826986682,0.000292983389045709,-4.01495150139652e-05,-0.000874835577046262,0.000566779189953515,-4.29384135793853e-05,0.00070744093579922,0.000333970836585706,-0.000933460812139408,0.000220886467471537,-0.00121838382928185,-8.1213304108374e-05,-0.00016620599180861,-0.00125142447708804,0.000136151148899977,-0.000304230606066547,1.85641747165732e-05,-0.000210199398116728,0.00028732796938602,0.0014741094782833,0.000385353588130855,-0.00121474661323084,-0.000710752035458562,-0.00076790414861172,-0.000333207204975317,-0.000123221609847235,-8.63684702521184e-05,0.00305954981879086,0.000140727167953436,-0.000775121855516758,-0.000258615611026691,-0.00216488922099245,0.000345034979979175
"19:17271923:G:C",-0.00146637315788922,0.00014275444764511,-0.000193684686454532,9.54992866475379e-06,-0.000476138827499639,-0.00499574907108924,-0.000128140281358213,-0.00109783462323332,-0.00274998138522253,-0.00448721561773091,-2.04347655783366e-05,-0.00137745874875073,-0.000359855197788583,-0.000126348843425106,0.000364547375080626,-6.00974435869261e-05,9.54992866475379e-06,-0.000111992718903053,-0.000193684686454532,0.000104518536336862,-0.000610989574147958,-0.00226714480049583,-0.00106062003927487,-2.04347655783366e-05,-0.00189987659593704,-0.00146637315788922,-0.00360531495268734,-0.000308858989177985,-5.58475487899557e-05,0.000136759304008471,7.17590345313823e-05,-2.04347655783366e-05,-9.43855730133336e-05,-0.00271900933655411,-0.00280593576980248,0.000117146962523407,-0.00381626446795558,-0.0041609199910253,-9.564623197722e-05,-0.00143202862552538,-0.000741809810536065,-0.00211865750770723,-0.00121651344553442,1.88390287254592e-05,-0.00133977467458202,-0.000231441255939657,-0.00529324422172639,-0.00057976106528379,-0.0027077816740988,0.000158425508026916,-0.0011978412355611,-6.42582415091297e-05,-2.9527275020591e-05,-0.000122706453921317,-0.000198076300054417,0.127467421712979,-0.000112564506721924,-0.0013546127534898,-6.21888055016839e-05,-0.00512139212237273,0.000260315114985588,7.90024571193371e-05,-0.00459255256961288,-0.00100472011648112,-2.9527275020591e-05,-0.0020857962322447,-0.000739488798396248,-3.17417057580371e-05,-0.00188052180397902,-0.00461187459425272,-8.05315389760253e-05,0.000160482082178781,-0.00324257458910626,-6.00974435869261e-05,-0.000124537676176928,-0.00374562437244785,0.000100088097704898,-0.00454432270627514,1.44751265134246e-05,-0.00102660880354311,-0.00108304518610325,-0.00346689373320785,0.000268860547070204,-0.00537351413543341,-0.00274505167520367,-0.00306697271626177,-0.00137519572086919,-9.17527890953451e-05,-6.42582415091297e-05,-0.00296134452174091,0.000101699426099167,-0.00809765728679945,-0.000841497381924405,-0.00241705451334795,-0.003424209901568
"19:17272561:G:A",-0.00179668091459551,-0.00117726889185299,-0.0010506021053045,-0.000708486780327533,-0.00419034991177458,-0.00451818031371953,2.36747178368191e-05,-0.00428566608928893,-0.000625525311769515,1.55733803186564e-06,-0.0017647261716327,-0.003705481891906,-0.000454280310569821,-0.00224854808527031,9.59134021911723e-05,-0.00287718269301696,-0.000708486780327533,-0.00168946087460409,-0.0010506021053045,-0.00244045936435011,-0.0055107026637673,-0.00327698649609909,-0.000264608095000618,-0.0017647261716327,-0.000137730906619282,-0.00503374732780326,-0.00225746981117814,-0.00457316911309125,-0.00655845264442956,-0.00445700836050289,-0.00130662505378165,-1.25766290111073e-05,-0.00141986191278765,-0.00976558275372641,-0.00794050153796722,-0.000626845534494436,-0.0123095714661443,3.37445451350504e-05,-0.000696735710826069,-0.00574605795893479,-0.00512735404684239,-5.38867730695003e-05,-0.000475891519035265,-0.00880564049679755,-0.00584482592719748,-0.000645561613088041,-0.0019988310193515,-0.000874554545241324,-0.000149802118599496,-0.00787279780188621,-0.000788891753197074,2.11790334354589e-05,-1.894139877745e-05,-0.000276311633649051,-0.000890259297253948,-0.000112564506721924,0.221919489068113,-0.00557471014993371,-0.000924338359291177,8.8348617943268e-05,-0.000913075279511233,-0.00182691680810443,-1.65209883524753e-05,-0.000617993571854214,-1.894139877745e-05,-0.00148490916550159,-0.000777248894753058,-2.05068986174339e-05,-0.000694622682812618,-0.000489299882478811,-0.00185979612275489,-0.000724387850286945,-0.00320443799709036,1.98047148209923e-05,-8.74266597268303e-05,-0.00850835612902889,-0.00130889247526156,-0.000530623096686611,-0.0053058089498732,-0.000403052306361396,-0.00241921433753944,-0.00825302521448013,-0.00154848028973564,-0.00294676019622475,-0.00841771973751371,-0.000480927322893621,-0.000112700674587352,5.23885617909059e-06,2.11790334354589e-05,-0.000835373176043319,-0.00180191887645798,-0.00842632918518804,-0.000692345419852636,-0.00124056366977676,-0.0068758423656492
"19:17272577:G:A",-0.00171864497127139,4.29712896377055e-05,-0.00406219827214738,3.31791029406503e-06,-0.00148709249094026,-0.000124541863021133,-0.000757139447600252,-0.000833421634210296,-0.00313705482479421,8.19219116543479e-07,-0.00168519844625159,-1.3581465982071e-05,-0.000173876090934222,-0.00413553856783544,-0.000355580573850212,-0.00403016957516744,3.31791029406503e-06,-0.00175996440164905,-0.00406219827214738,3.18850857148334e-05,-0.00133686881865991,-0.00443358026395035,-6.79964320671189e-06,-0.00168519844625159,-0.00147510752092206,-4.31045924109696e-06,-0.00159382017456089,-0.00133570351852885,-0.00320568609638894,4.11497420511608e-05,2.22076539859728e-05,-0.00270325976604635,-0.00189020329198897,-0.000815239747013585,-0.00199123010907876,7.45377318942531e-05,-0.000638302742254737,-0.00204071390399108,-3.06511720769009e-05,-0.000248766582457094,-0.00346452086446547,2.48699967944077e-05,-0.00122820714947558,-0.00154625756849924,-0.000379853343333458,-0.0038418217424887,-0.000841724723545045,-0.000757139447600252,-4.86435534581275e-05,-0.000787636229764743,-0.0021928694807869,-2.04776131225159e-05,-9.22478581433239e-06,-0.00324787112462488,-0.000742293300317165,-0.0013546127534898,-0.00557471014993371,0.143689844703471,-0.00662832077429609,-0.00470147353133044,7.39199935857471e-05,-0.00282761878033533,6.72364027298755e-05,-0.00211346111964517,-9.22478581433239e-06,-0.00174688784054577,-0.000260662252572708,-1.00193110492697e-05,3.62764015111594e-05,6.92537773225865e-05,-0.00188349469809612,-0.00206557154615883,-0.00146209594908964,-0.00403016957516744,-0.00372046521319547,-0.000641293081145911,-0.0020929956757243,-0.000909969652687082,5.01862105917183e-06,-0.00348291420420743,-0.000361048439953215,-0.00247732630766428,-0.00159573382371825,-0.000839556286887255,-0.00152373698375641,3.89893724044299e-05,-0.00289112118336732,-0.00380553085350854,-2.04776131225159e-05,-0.000669362058793865,3.09943264173995e-05,-0.00554952611683479,-0.00399430404503409,-0.00217125162273835,3.85101732955917e-05
