"","15:72115051:G:A","15:72121018:C:A","15:72121400:C:T","15:72121472:T:C","15:72128063:C:T","15:72133278:C:T","15:72133898:C:T","15:72135627:G:A","15:72135959:A:G","15:72138715:C:T","15:72145299:G:A","15:72146497:G:C","15:72147443:C:T","15:72148110:C:T","15:72156956:G:A","15:72162223:T:C","15:72163885:A:G","15:72165831:G:A","15:72169466:G:A","15:72170400:G:A","15:72172798:G:A","15:72173831:G:A","15:72180440:C:T","15:72180982:C:T","15:72183013:A:C","15:72183040:C:A","15:72184521:T:C","15:72186639:T:C","15:72189952:T:A","15:72190760:A:G","15:72193250:A:G","15:72195229:T:C","15:72199545:T:C","15:72203517:C:A","15:72203855:C:T","15:72203987:A:G","15:72207204:C:T","15:72209710:C:T","15:72215349:C:T","15:72216414:T:A","15:72218036:G:A","15:72223185:T:C","15:72223686:A:T","15:72223702:A:G","15:72224988:C:T","15:72225366:A:C","15:72226877:G:A","15:72227017:T:C","15:72229180:G:A","15:72231670:C:T","15:72233683:G:A","15:72234065:T:C","15:72239445:G:A","15:72243183:G:A","15:72244811:T:C","15:72245000:G:A","15:72245820:T:C","15:72246813:G:A","15:72249039:G:A","15:72253462:T:C","15:72254502:C:T","15:72255249:C:T","15:72255419:C:T","15:72255645:C:T","15:72260051:T:C","15:72261947:G:A","15:72264152:T:A","15:72267705:C:T","15:72269552:A:G","15:72279700:T:C","15:72281670:T:C","15:72283291:C:T","15:72283294:T:G","15:72286995:T:C","15:72290335:T:C","15:72291068:G:C","15:72291684:A:C","15:72296060:A:C","15:72299982:T:C","15:72301958:G:A","15:72302894:G:C","15:72305213:G:C","15:72307014:G:A","15:72309551:T:C","15:72310678:G:A","15:72314545:C:T","15:72316209:G:A","15:72318232:T:C","15:72319164:G:A","15:72321999:G:T","15:72326319:A:G","15:72329349:T:G","15:72330332:T:G","15:72332917:T:G","15:72341374:T:C","15:72343399:T:C","15:72345478:C:T","15:72346845:C:A","15:72352539:T:C","15:72355223:T:C","15:72356374:C:T","15:72357852:G:A","15:72358890:C:T","15:72365073:T:C","15:72369039:T:C","15:72370568:C:G","15:72372805:C:T","15:72372854:C:T","15:72377149:G:A","15:72377666:A:G","15:72384483:C:T","15:72385770:A:T","15:72386295:T:C","15:72387992:A:T","15:72388800:G:A","15:72390008:T:A","15:72390039:A:G","15:72390538:G:A","15:72391279:T:C","15:72392048:A:G","15:72392499:G:A","15:72396952:C:T","15:72398015:A:C","15:72401067:C:T"
"15:72115051:G:A",-0.000740464235443383,-0.000115417719772637,4.76053942000121e-05,0.000104261700737851,0.0011165090681704,-0.000127964927813196,-9.93846523655861e-06,1.6736140322493e-06,2.28334189147361e-05,-5.03431803577925e-05,9.57921269320039e-05,1.6736140322493e-06,9.57921269320039e-05,0.000226266101080341,0.00237796899291975,7.26646350033278e-05,-0.00014051254619396,0.000149609199342926,-0.000169349994582291,-0.00121303159333142,0.000128497933474137,-0.000126942113087836,5.9606514962951e-05,4.76053942000121e-05,6.80587809753774e-06,0.000102536539392517,-8.26835940772597e-05,0.000226266101080341,-5.47512886823753e-05,-0.000998078418765758,2.82894795091693e-05,-7.61923545375964e-05,-0.000115417719772637,-0.000223480867158621,4.95506872892904e-05,4.76053942000121e-05,8.55480877071102e-06,-0.00179739843974058,5.1517453566241e-05,-0.000126942113087836,0.00237796899291975,4.78571939739325e-05,-8.26835940772597e-05,4.99404072789034e-05,-1.49031897143104e-05,-0.000258836432920795,0.000149609199342926,4.76053942000121e-05,-0.000221221577809239,0.000226266101080341,5.9606514962951e-05,2.28334189147361e-05,3.2028334612022e-05,-0.000473918195981859,-0.000126942113087836,9.47096732408781e-05,8.11857077316347e-05,0.000128497933474137,-0.000196440132021358,-8.26835940772597e-05,4.76053942000121e-05,-0.000221221577809239,-0.000122730931866322,5.9606514962951e-05,-3.37811134523136e-05,0.00025012028142779,-5.47512886823753e-05,2.82894795091693e-05,0.000154529395844705,4.76053942000121e-05,8.11857077316347e-05,0.00237796899291975,-9.93846523655861e-06,-9.31130912880107e-05,0.000107159717872563,0.000205316473675943,0.000179492957659733,2.82894795091693e-05,-0.000126942113087836,2.28334189147361e-05,-0.000278594773835295,5.9606514962951e-05,-5.90103002169329e-05,-7.34892256568642e-05,4.76053942000121e-05,0.000226266101080341,-5.76067266058189e-05,-3.68408533502063e-05,-2.08151309468718e-05,-0.00112022525173394,2.82894795091693e-05,-0.000196440132021358,-0.000126942113087836,-0.000221221577810127,4.76053942000121e-05,0.000223269578495611,7.47596271972739e-05,-0.000331318334062303,0.000149609199342926,0.000130956763216616,-0.000125907513356616,-5.76067266058189e-05,-0.00126530201505037,4.76053942000121e-05,0.000226266101080341,-1.27748491074442e-06,6.80587809753774e-06,-0.000196440132021358,-0.000126942113087836,1.6736140322493e-06,-0.000195557739255392,-8.26835940772597e-05,0.000386667480690939,1.78377301720545e-05,0.000128497933474137,4.76053942000121e-05,0.000179492957659733,-0.00126530201505037,0.000114305776265589,1.6736140322493e-06,1.6736140322493e-06,-0.000115417719772637,0.000102536539392517,1.57501187345588e-05
"15:72121018:C:A",-0.000115417719772637,0.0447709415571724,7.60358572629016e-05,0.000163291382691,-3.4453830054737e-05,-0.00158856707384558,-1.73973500690039e-05,2.52580801429758e-06,3.66393698119083e-05,-8.38193551322419e-05,0.000152236559798347,2.52580801429758e-06,0.000152236559798347,0.00035416912800379,-0.000115417719772637,0.000115686889498257,-0.000962942008997381,0.000236122969368147,0.000470152065671137,0.000141976202432836,-0.00226416686812403,-0.000208720883965618,9.41555802347338e-05,7.60358572629016e-05,1.02689345817808e-05,0.00016240097979292,-0.000495375759747674,0.000354169128004678,-9.0395926374498e-05,-0.00290600699643484,4.4880694913374e-05,-0.000125776394985344,0.00189805788820419,0.00049463634729463,7.89746329079577e-05,7.60358572629016e-05,-0.00140686378656874,0.000321905276511103,8.19451812885674e-05,-0.000208720883965618,-0.000115417719772637,-0.00136620263776965,-0.000495375759747674,7.75374708981147e-05,-0.00112618222864036,-0.000111637118147101,0.000236122969368147,7.60358572629016e-05,0.000527327966203472,0.000354169128004678,-0.00168069230525703,3.66393698119083e-05,-0.0029980236971614,-0.00100916828372721,-0.000208720883965618,0.00014892049911186,0.000128543682582638,-0.00226416686812403,-0.000463635006014762,-0.000495375759747674,7.60358572629016e-05,0.000478814202526934,-0.000202633510845374,-0.00168069230525703,-5.59500539685232e-05,0.000390539466951445,-0.000939957003705416,4.4880694913374e-05,-0.000490838811672667,7.60358572629016e-05,0.000128543682582638,-0.000115417719772637,-0.00118225887166368,-0.0009987428039544,-0.00247027684135048,0.000321905276511103,0.000280843570729772,4.4880694913374e-05,-0.000208720883965618,3.66393698119083e-05,0.000508778068928351,9.41555802347338e-05,-0.000744091101144484,-0.000121772190883718,7.60358572629016e-05,0.000354169128004678,-0.00422400789387467,-6.05392276789019e-05,-0.00115160132277659,-0.00083328181080411,4.48806949124858e-05,-0.000463635006014762,-0.000208720883965618,0.000487254963326578,7.60358572629016e-05,0.000349720897369288,0.000118849136176102,-0.00178865368170111,0.000236122969368147,-0.00232487921182312,-0.000207225337463868,-0.000829044841242244,-0.00260215763740046,7.60358572629016e-05,0.000354169128004678,-0.00120886913949292,1.02689345817808e-05,-0.000463635006014762,-0.000208720883965618,2.52580801429758e-06,0.000228168948004814,-0.000495375759747674,-0.000211661169072563,-0.00515906519254639,-0.00226416686812403,7.60358572629016e-05,0.000280843570729772,-0.00260215763740046,0.000181653234250234,2.52580801429758e-06,2.52580801429758e-06,0.00189805788820419,0.00016240097979292,2.3754327688863e-05
"15:72121400:C:T",4.76053942000121e-05,7.60358572629016e-05,-0.0116399550447008,-8.75035327032592e-05,1.62784162611729e-05,9.48438719969857e-05,5.81894965989704e-06,-1.53685808168547e-06,-1.7903192986779e-05,-0.00126742300393623,-7.68870400706945e-05,-1.53685808168547e-06,0.0017186194818315,-0.000188039059280776,4.76053942000121e-05,-5.81201300686729e-05,0.000100936710622612,-0.000122117187721926,-0.000117332899560729,-7.42744678765561e-05,-0.000104783806638586,9.38460593804535e-05,-4.88462246766019e-05,0.0017186194818315,-6.25781156138316e-06,-8.31405758638937e-05,6.16486606714872e-05,-0.000188039059279888,3.97827161684461e-05,-6.28406075282584e-05,-2.29167140259889e-05,5.55195148592702e-05,7.60358572629016e-05,-9.77970702749076e-05,-3.95673837489952e-05,0.0017186194818315,-7.8693623493109e-06,-0.00017019077367042,-4.13785014012902e-05,9.38460593804535e-05,4.76053942000121e-05,-4.10107154102946e-05,6.16486606714872e-05,-4.29475481515951e-05,1.04089365695614e-05,0.000174321284003298,-0.000122117187721926,0.0017186194818315,-3.69639236401653e-05,-0.000188039059279888,-4.88462246766019e-05,-1.7903192986779e-05,-2.63602453181022e-05,8.2024238095002e-05,9.38460593804535e-05,-0.000798893963585456,-6.59982828938865e-05,-0.000104783806638586,0.000143267630224209,6.16486606714872e-05,0.0017186194818315,-9.9721807530706e-05,8.97321561748043e-05,-4.88462246766019e-05,2.42431183865577e-05,-0.000208894346922506,3.97827161684461e-05,-2.29167140259889e-05,0.000210254295379464,0.0017186194818315,-6.59982828938865e-05,4.76053942000121e-05,5.81894965989704e-06,6.6645803646459e-05,-8.74395362115976e-05,-0.00017019077367042,-0.00063041004565445,-2.29167140259889e-05,9.38460593804535e-05,-1.7903192986779e-05,-7.90377974411172e-05,-4.88462246766019e-05,4.37643684652045e-05,-0.00137965209997581,0.0017186194818315,-0.000188039059279888,4.24531527150052e-05,2.70831327391363e-05,1.21592952586624e-05,0.000567814256385191,-2.29167140259889e-05,0.000143267630224209,9.38460593804535e-05,-0.000144125557915764,0.0017186194818315,-0.000185169581412126,-6.00539304391745e-05,4.24531527150052e-05,-0.000122117187721926,-0.000107081768553563,9.28362034464669e-05,4.24531527150052e-05,-9.63672176679253e-05,0.0017186194818315,-0.000188039059279888,-2.21586866810952e-06,-6.25781156138316e-06,0.000143267630224209,9.38460593804535e-05,-1.53685808168547e-06,-0.000999017708794625,6.16486606714872e-05,9.58298553621617e-05,6.16486606714872e-05,-0.000104783806638586,0.0017186194818315,-0.00063041004565445,-9.63672176679253e-05,0.0010690184043991,-1.53685808168547e-06,-1.53685808168547e-06,7.60358572629016e-05,-8.31405758638937e-05,-1.45144065939462e-05
"15:72121472:T:C",0.000104261700737851,0.000163291382691,-8.75035327032592e-05,0.151044654868393,3.6304853209046e-05,-0.000881481855640409,1.08202924202772e-05,2.17026161042355e-06,-4.09176197937455e-05,7.58164043874743e-05,-0.00131008300582636,-3.76964553172598e-06,-0.000181477417823928,-4.98527043122365e-05,0.000104261700737851,-0.000136126450082763,-0.0022567861227154,-0.0011176593110962,0.00169809778521657,-0.000178228539243541,-0.000251939820753222,-0.0062733134080748,-0.00597136729816938,-8.75035327032592e-05,-1.54027045837779e-05,-0.00359010041423424,0.000133625495899459,-4.98527043122365e-05,-0.00172192388384484,-0.00171200267041538,-0.00157512165513385,-0.00849664234266534,0.000163291382691,0.00171357761849045,-9.20431201674177e-05,-8.75035327032592e-05,-1.93922403983748e-05,-0.00315372146009452,-0.00130389851136847,-0.0062733134080748,0.000104261700737851,-0.00571112245608241,0.000133625495899459,-0.00511006451558238,2.20540874131814e-05,-0.000998657259618341,-0.0011176593110962,-8.75035327032592e-05,0.00187791194277764,-4.98527043122365e-05,-0.00156624969212249,-4.09176197937455e-05,-6.20902760273268e-05,-0.0035540156984526,-0.0062733134080748,-0.000353521712605165,-0.00317919403838651,-0.000251939820753222,0.000297865082406368,0.000133625495899459,-8.75035327032592e-05,0.00171229412151508,-0.00149826209202875,-0.00156624969212249,-0.00186286114275092,-0.0010410080992358,-0.0051444248487913,-0.00157512165513385,-0.000544740359080365,-8.75035327032592e-05,-0.00317919403838651,0.000104261700737851,1.08202924202772e-05,-0.00218042829313703,-0.000209294858520614,-0.00315372146009452,-0.000308096200862806,-5.3438872978262e-05,-0.0062733134080748,-4.09176197937455e-05,0.00172459313140116,-0.00597136729816938,9.51831485993537e-05,0.000113203192833033,-8.75035327032592e-05,-4.98527043122365e-05,-0.00258377138545995,-0.00174047445998138,-0.00660399686713831,-0.00107148535030843,-5.34388729791502e-05,0.000297865082406368,-0.0062733134080748,0.00160553940645425,-8.75035327032592e-05,0.000681461689127971,-0.00388278195634939,9.20705017382062e-05,-0.0011176593110962,-0.000258122866844346,-0.00645223136745976,-0.00582795165148298,-0.000233112773624811,-8.75035327032592e-05,-4.98527043122365e-05,-0.0019164130216387,-1.54027045837779e-05,0.000297865082406368,-0.0062733134080748,2.17026161042355e-06,-0.000742886338238158,0.000133625495899459,-0.00147519488087777,-0.00343812426578882,-0.000251939820753222,-8.75035327032592e-05,-0.000308096200862806,-0.000233112773624811,2.89009983234223e-05,2.17026161042355e-06,-3.76964553172598e-06,0.000163291382691,-0.00359010041423424,-3.59420543025735e-05
"15:72128063:C:T",0.0011165090681704,-3.4453830054737e-05,1.62784162611729e-05,3.6304853209046e-05,-0.0055647196736972,-4.29384135793853e-05,-3.06732684940414e-06,6.07392329321499e-07,7.78077916763209e-06,-1.65656722499463e-05,3.28305482382163e-05,6.07392329321499e-07,3.28305482382163e-05,7.81354406473866e-05,0.0011165090681704,2.48945964180791e-05,-4.66037535291619e-05,5.14801700397527e-05,-4.68370914674665e-05,3.1187318391801e-05,4.42352975884575e-05,-4.25512697175279e-05,2.06153396238307e-05,1.62784162611729e-05,2.47033254652251e-06,3.5261682954868e-05,-2.77595479065695e-05,7.81354406482748e-05,-1.81879893856873e-05,2.60659584485623e-05,9.75585167406479e-06,-2.53539296286576e-05,-3.4453830054737e-05,-6.45663759168968e-05,1.69811899768391e-05,1.62784162611729e-05,3.10528250935249e-06,7.08888050517942e-05,1.7691803494202e-05,-4.25512697175279e-05,0.0011165090681704,1.68442324088858e-05,-2.77595479065695e-05,1.75993334954327e-05,-4.87614766786493e-06,-8.40443191192364e-05,5.14801700397527e-05,1.62784162611729e-05,-6.33247193686515e-05,7.81354406482748e-05,2.06153396238307e-05,7.78077916763209e-06,1.1109647894969e-05,-3.7979853312109e-05,-4.25512697175279e-05,3.2853029273916e-05,2.79694569185196e-05,4.42352975884575e-05,-6.56809320531693e-05,-2.77595479065695e-05,1.62784162611729e-05,-6.33247193695397e-05,-4.09572429473926e-05,2.06153396238307e-05,-1.11647665104186e-05,8.64504241011588e-05,-1.81879893856873e-05,9.75585167406479e-06,0.0010377258032479,1.62784162611729e-05,2.79694569185196e-05,0.0011165090681704,-3.06732684940414e-06,-3.07941216064478e-05,3.6928811206316e-05,7.08888050517942e-05,6.22570678867618e-05,9.75585167406479e-06,-4.25512697175279e-05,7.78077916763209e-06,-8.22739493342439e-05,2.06153396238307e-05,-1.97551825218412e-05,-2.43520230869265e-05,1.62784162611729e-05,7.81354406482748e-05,-1.92387352653256e-05,-1.22843831880104e-05,-6.41864542849646e-06,-0.000305200777379611,9.75585167317661e-06,-6.56809320531693e-05,-4.25512697175279e-05,-6.33247193704278e-05,1.62784162611729e-05,7.70547327331172e-05,2.56504295226279e-05,-1.92387352653256e-05,5.14801700397527e-05,4.5121515134916e-05,-4.21596593813689e-05,-1.92387352653256e-05,4.03802272277431e-05,1.62784162611729e-05,7.81354406482748e-05,8.91898910282407e-08,2.47033254652251e-06,-6.56809320531693e-05,-4.25512697175279e-05,6.07392329321499e-07,-4.92459321224104e-05,-2.77595479065695e-05,-4.33211669559341e-05,-2.77595479065695e-05,4.42352975884575e-05,1.62784162611729e-05,6.22570678867618e-05,4.03802272277431e-05,3.91230750382832e-05,6.07392329321499e-07,6.07392329321499e-07,-3.4453830054737e-05,3.5261682954868e-05,5.71814736360921e-06
"15:72133278:C:T",-0.000127964927813196,-0.00158856707384558,9.48438719969857e-05,-0.000881481855640409,-4.29384135793853e-05,0.0493698947790975,-0.000842876917618085,3.00914703288413e-06,4.5677706259184e-05,-0.000105741979273155,0.000190637464942078,3.00914703288413e-06,0.000190637464942078,0.00044813861071713,-0.000127964927813196,0.000144527677286455,-0.000290720782382792,0.000296740534793116,-0.00132490329464208,-0.00124353365312846,0.000254418729810801,-0.000179133603525727,-0.00380619348986322,9.48438719969857e-05,1.22380341469608e-05,-0.00188474788543402,-0.000168373623409934,0.00044813861071713,-0.000113406283193562,-0.00104477597781205,5.55646867175241e-05,-0.000694053697944064,-0.00158856707384558,-0.00131658163801873,-0.00257455513128857,9.48438719969857e-05,1.53833604183973e-05,0.000406308023280566,0.00010197959699898,-0.000179133603525727,-0.000127964927813196,9.10366998434498e-05,-0.000168373623409934,-0.000902394337397361,-3.15950248923613e-05,-0.00160774744653036,0.000296740534793116,9.48438719969857e-05,-0.00128098572971957,0.00044813861071713,-0.00131320686517888,4.5677706259184e-05,6.23408291522409e-05,-0.00355651498912568,-0.000179133603525727,0.00018497060486844,-0.00155817747821629,0.000254418729810801,-0.00040052926488432,-0.000168373623409934,9.48438719969857e-05,-0.00133257514792362,-0.000251777019395938,-0.00131320686517888,-0.00485815972378045,0.00049532988204426,-0.000113406283193562,5.55646867175241e-05,-0.000600532675495202,9.48438719969857e-05,-0.00155817747821629,-0.000127964927813196,-2.27475968621604e-05,-0.000193839592918188,0.000211587817967818,0.000406308023280566,0.000352233941343982,5.55646867175241e-05,-0.000179133603525727,4.5677706259184e-05,-0.00131901398092005,-0.00380619348986322,-0.000120809563911806,-0.000152662074934362,9.48438719969857e-05,0.00044813861071713,-0.000508177359842321,-7.59417564006881e-05,-4.76921911474193e-05,0.000832269710532074,5.55646867166359e-05,-0.00040052926488432,-0.000179133603525727,-0.00132366309108445,9.48438719969857e-05,0.000442532600205325,0.000148370304104084,-0.00129499442950287,0.000296740534793116,0.000258968787020919,-0.00028358430861708,-0.000118369978754806,-0.0012697889619302,9.48438719969857e-05,0.00044813861071713,-7.30887313959983e-06,1.22380341469608e-05,-0.00040052926488432,-0.000179133603525727,3.00914703288413e-06,-0.000541402331553975,-0.000168373623409934,0.000345467561409407,-0.000183903276409048,0.000254418729810801,9.48438719969857e-05,0.000352233941343982,-0.0012697889619302,0.000228158697220593,3.00914703288413e-06,3.00914703288413e-06,-0.00158856707384558,-0.00188474788543402,-0.000975558392319442
"15:72133898:C:T",-9.93846523655861e-06,-1.73973500690039e-05,5.81894965989704e-06,1.08202924202772e-05,-3.06732684940414e-06,-0.000842876917618085,0.0438162136818798,2.49982571531859e-07,2.9770411638097e-06,-0.00360694209244006,1.00930513138309e-05,2.49982571531859e-07,1.00930513138309e-05,1.30358682151055e-05,-9.93846523655861e-06,-0.000833498318930204,-0.00166392986559671,1.28845508156061e-05,-0.000993800831938785,9.77161911475122e-06,1.20641114254028e-05,-2.24899075664808e-05,7.12347407549885e-06,5.81894965989704e-06,1.00286335324995e-06,1.0587987714139e-05,-1.34850293571631e-05,1.30358682151055e-05,-8.30074343571852e-06,8.59659936214285e-06,3.68850979270974e-06,-1.21097285363803e-05,-1.73973500690039e-05,-0.00100897771936292,6.03825401057634e-06,5.81894965989704e-06,-0.00227620940226636,1.34471515789159e-05,6.256899316881e-06,-2.24899075664808e-05,-9.93846523655861e-06,6.04484786848047e-06,-1.34850293571631e-05,6.27756011084557e-06,-2.02434457818867e-06,-0.00141823746235303,1.28845508156061e-05,5.81894965989704e-06,-0.00119605398069478,1.30358682151055e-05,-0.00183920440215068,2.9770411638097e-06,4.16241504463954e-06,-0.00153202901652705,-2.24899075664808e-05,1.01312905265161e-05,9.02697254545615e-06,1.20641114254028e-05,-0.00424992119312684,-1.34850293571631e-05,5.81894965989704e-06,-0.0010078557232287,-2.14375466009997e-05,-0.00183920440215068,-4.85710285147434e-06,1.2141093427509e-05,-8.30074343571852e-06,3.68850979270974e-06,-6.70714293473651e-05,5.81894965989704e-06,9.02697254545615e-06,-9.93846523655861e-06,-1.2330628242907e-06,-0.001460106719545,1.09056189518952e-05,1.34471515789159e-05,1.34999906125088e-05,3.68850979270974e-06,-2.24899075664808e-05,2.9770411638097e-06,-0.00102513800094961,7.12347407549885e-06,-9.12664691909981e-06,-0.00339582372974334,5.81894965989704e-06,1.30358682151055e-05,-8.85290870833444e-06,-0.00153963649188604,-2.64270402094979e-06,-0.000528946854992718,3.68850979270974e-06,-0.00424992119312684,-2.24899075664808e-05,-0.000852722968302189,5.81894965989704e-06,1.31205295685888e-05,8.44982146830375e-06,-8.85290870833444e-06,1.28845508156061e-05,1.21846479101961e-05,-2.22300795327257e-05,-8.85290870833444e-06,1.1506626836244e-05,5.81894965989704e-06,1.30358682151055e-05,-0.000929447776419678,1.00286335324995e-06,-0.00424992119312684,-2.24899075664808e-05,2.49982571531859e-07,-0.000728789500556104,-1.34850293571631e-05,-2.3003168897695e-05,-1.34850293571631e-05,1.20641114254028e-05,5.81894965989704e-06,1.34999906125088e-05,1.1506626836244e-05,1.12699201322286e-05,2.49982571531859e-07,2.49982571531859e-07,-1.73973500690039e-05,1.0587987714139e-05,-0.000552641612764582
"15:72135627:G:A",1.6736140322493e-06,2.52580801429758e-06,-1.53685808168547e-06,2.17026161042355e-06,6.07392329321499e-07,3.00914703288413e-06,2.49982571531859e-07,0.0274647349474639,-7.06302828668015e-07,1.31796042257548e-06,-3.32644566825024e-06,-5.51981402807655e-08,-3.32644566825024e-06,-0.000433070729846108,1.6736140322493e-06,-2.44070925159434e-06,3.18518552155922e-06,-5.62793715630505e-06,2.939050098405e-06,-3.1591614453319e-06,-4.70413127295899e-06,2.98715306534802e-06,-1.99667072120491e-06,-1.53685808168547e-06,-2.26514956125357e-07,-3.61616806099363e-06,2.10994640070794e-06,-0.000433070729846108,1.44279161595762e-06,-2.59830893689639e-06,-8.99621857897159e-07,1.94265341679767e-06,2.52580801429758e-06,3.78000534428935e-06,-1.61023537437188e-06,-1.53685808168547e-06,-2.85601567284743e-07,-0.000293127023279993,-1.6848761470456e-06,2.98715306534802e-06,1.6736140322493e-06,-0.00367776746927184,2.10994640070794e-06,-1.70138207700177e-06,4.084350075928e-07,-0.00352605904063985,-5.62793715630505e-06,-1.53685808168547e-06,3.71808550525543e-06,-0.000433070729846108,-1.99667072120491e-06,-7.06302828668015e-07,-1.03411766527728e-06,2.71751257407971e-06,2.98715306534802e-06,-3.35527968609028e-06,-2.78734667258362e-06,-4.70413127295899e-06,4.0217527974562e-06,2.10994640070794e-06,-1.53685808168547e-06,3.71808550525543e-06,2.89521272911486e-06,-1.99667072120491e-06,9.13509867750406e-07,-0.000506583637901237,-0.00443081818453628,-8.99621857897159e-07,4.79400179997924e-06,-1.53685808168547e-06,-2.78734667258362e-06,1.6736140322493e-06,2.49982571531859e-07,2.28822675651941e-06,-3.81791372561224e-06,-0.000293127023279993,-7.12775360423024e-06,-8.99621857897159e-07,2.98715306534802e-06,-7.06302828668015e-07,4.37879100179117e-06,-1.99667072120491e-06,1.56119832261936e-06,1.87148827368588e-06,-1.53685808168547e-06,-0.000433070729846108,1.5224157179361e-06,1.00456487217571e-06,-0.00399979632677017,-0.00337396517856092,-8.99621857008981e-07,4.0217527974562e-06,2.98715306534802e-06,3.71808550525543e-06,-1.53685808168547e-06,-9.26918423527212e-06,-2.5251342048449e-06,1.5224157179361e-06,-5.62793715630505e-06,-4.81792262263525e-06,-0.000483443654149873,-0.00468550867067297,-4.24354867245569e-06,-1.53685808168547e-06,-0.000433070729846108,-3.34080398900483e-08,-2.26514956125357e-07,4.0217527974562e-06,2.98715306534802e-06,4.89448392837488e-06,-8.97892934492717e-06,2.10994640070794e-06,3.03076270835589e-06,2.10994640070794e-06,-4.70413127295899e-06,-1.53685808168547e-06,-7.12775360423024e-06,-4.24354867245569e-06,-4.06158889099117e-06,4.89448392837488e-06,-5.51981402807655e-08,2.52580801429758e-06,-3.61616806099363e-06,-5.32480716408656e-07
"15:72135959:A:G",2.28334189147361e-05,3.66393698119083e-05,-1.7903192986779e-05,-4.09176197937455e-05,7.78077916763209e-06,4.5677706259184e-05,2.9770411638097e-06,-7.06302828668015e-07,-0.00516307742214206,1.73494283863818e-05,-3.63348407663722e-05,-7.06302828668015e-07,-3.63348407663722e-05,-8.81088911208749e-05,2.28334189147361e-05,-2.74904783212904e-05,4.89458180004121e-05,-5.74721212744933e-05,3.91096645637745e-05,-3.48806841250493e-05,-4.93273280293138e-05,4.52217622877171e-05,-2.29760244234711e-05,-1.7903192986779e-05,-2.87469436344168e-06,-3.9194511509244e-05,2.9645908089293e-05,-8.81088911199868e-05,1.92428818337476e-05,-2.9375926131614e-05,-1.08106461826907e-05,-0.000462788819213245,3.66393698119083e-05,5.75569207335036e-05,-1.87240526248189e-05,-1.7903192986779e-05,-3.61447029373352e-06,-7.97939076671028e-05,-1.95545265011532e-05,4.52217622877171e-05,2.28334189147361e-05,-1.91007409684474e-05,2.9645908089293e-05,0.000171153490528653,5.08393166676058e-06,8.57225769017589e-05,-5.74721212744933e-05,-1.7903192986779e-05,0.000841056858352118,-8.81088911199868e-05,-2.29760244234711e-05,0.00205388993281996,-1.23904191751123e-05,3.98274624533457e-05,4.52217622877171e-05,-3.68429967343431e-05,-3.10970718473413e-05,-4.93273280293138e-05,6.9266592747752e-05,2.9645908089293e-05,-1.7903192986779e-05,-0.000184520611557382,4.3342998439222e-05,-2.29760244234711e-05,-0.000450549383100629,-9.7765098921343e-05,1.92428818337476e-05,-1.08106461826907e-05,0.00010215506613509,-1.7903192986779e-05,-3.10970718473413e-05,2.28334189147361e-05,2.9770411638097e-06,3.23447187771109e-05,-4.11586496928962e-05,-7.97939076671028e-05,-7.03087918676459e-05,-1.08106461826907e-05,4.52217622877171e-05,0.00205388993281996,7.54842895380747e-05,-2.29760244234711e-05,2.10697272287064e-05,2.56644118410421e-05,-1.7903192986779e-05,-8.81088911199868e-05,2.0467961396875e-05,1.30653618430898e-05,6.22231936198148e-06,0.000288285930047039,0.000789191674538614,6.9266592747752e-05,4.52217622877171e-05,0.000733895224075631,-1.7903192986779e-05,-8.68087740260037e-05,-2.83762147370581e-05,2.0467961396875e-05,-5.74721212744933e-05,-5.03755298613129e-05,4.47604172375549e-05,2.0467961396875e-05,-4.5233115806731e-05,-1.7903192986779e-05,-8.81088911199868e-05,-7.06742207867705e-07,-2.87469436344168e-06,6.9266592747752e-05,4.52217622877171e-05,-7.06302828668015e-07,-8.6617654909027e-05,2.9645908089293e-05,4.61283434463056e-05,2.9645908089293e-05,-4.93273280293138e-05,-1.7903192986779e-05,-7.03087918676459e-05,-4.5233115806731e-05,-4.3294873559141e-05,-7.06302828668015e-07,-7.06302828668015e-07,3.66393698119083e-05,-3.9194511509244e-05,-6.66255284098582e-06
"15:72138715:C:T",-5.03431803577925e-05,-8.38193551322419e-05,-0.00126742300393623,7.58164043874743e-05,-1.65656722499463e-05,-0.000105741979273155,-0.00360694209244006,1.31796042257548e-06,1.73494283863818e-05,0.0882503361554736,6.95465298692355e-05,1.31796042257548e-06,-0.0011335597441553,0.000149694892730423,-5.03431803577925e-05,5.35759879536357e-05,-0.00011667160189166,0.000104767778330128,-0.00124571750223268,-0.00191194792778671,-0.000240648275127597,-0.000104817993664241,-0.00198223012568199,-0.00126742300393623,5.34493958515014e-06,-0.00350221737993195,-6.66257397474723e-05,0.000149694892730423,-4.32785142772119e-05,-4.45584013686329e-06,-0.00207389525051749,-6.10296968286406e-05,-8.38193551322419e-05,-0.00129900617203571,-0.00158345136414173,-0.00126742300393623,6.7121551516891e-06,0.000138100005262487,3.85524022314954e-05,-0.000104817993664241,-5.03431803577925e-05,-0.00404214338379205,-6.66257397474723e-05,-7.59577200648565e-05,-1.14370792099194e-05,-0.00181686505860057,0.000104767778330128,-0.00126742300393623,-0.00148494514015329,0.000149694892730423,4.45048693524797e-05,1.73494283863818e-05,2.43620746278594e-05,-9.39587738031378e-05,-0.000104817993664241,6.91919783193384e-05,-0.000480114775188945,-0.000240648275127597,-0.00456147290623399,-6.66257397474723e-05,-0.00126742300393623,-0.00129674688268633,-0.000101020680983055,4.45048693524797e-05,-0.00146131270290617,0.000162362451836096,-0.00137057897927395,-0.00207389525051749,-0.000263927816282816,-0.00126742300393623,-0.000480114775188945,-5.03431803577925e-05,-7.46082279778904e-06,-7.5216433469194e-05,-0.00253147053640745,0.000138100005262487,0.000123457029564733,2.15194366877114e-05,-0.000104817993664241,1.73494283863818e-05,-0.00135501227639434,-0.00198223012568199,-4.68639813870908e-05,-0.00127404918353236,-0.00126742300393623,0.000149694892730423,-0.00125756608070837,-2.88366443950139e-05,-0.00543399874654504,-0.000529737917066342,2.15194366877114e-05,-0.00456147290623399,-0.000104817993664241,-0.0011416141277607,-0.00126742300393623,0.000148018346239454,-0.00150562115505615,-4.56808632964822e-05,0.000104767778330128,-0.000175853296551232,-0.000103884033078927,-0.00125756608070837,-0.00181835836918243,-0.00126742300393623,0.000149694892730423,-5.72745863181012e-07,5.34493958515014e-06,-0.00456147290623399,-0.000104817993664241,1.3179604216873e-06,-0.00172414305600821,-6.66257397474723e-05,-0.000106656146938278,-6.66257397474723e-05,-0.000240648275127597,-0.00126742300393623,0.000123457029564733,-0.00181835836918243,8.18781330176321e-05,1.3179604216873e-06,1.31796042257548e-06,-8.38193551322419e-05,-0.000371040170355386,-0.00394063899032826
"15:72145299:G:A",9.57921269320039e-05,0.000152236559798347,-7.68870400706945e-05,-0.00131008300582636,3.28305482382163e-05,0.000190637464942078,1.00930513138309e-05,-3.32644566825024e-06,-3.63348407663722e-05,6.95465298692355e-05,0.0429020810927163,-3.32644566825024e-06,-0.000156503581028922,-0.000172426207815768,9.57921269320039e-05,-0.000118400890651849,0.000200298897275353,-5.82045753718674e-05,-0.000285202176362631,-0.00053726501846274,-0.00021408131986167,-0.00350399838581517,-0.000100697890605517,-7.68870400706945e-05,-1.3546913389284e-05,-0.000169885776571732,0.000123669575220475,-0.000172426207815768,7.8618445868095e-05,-0.000675210536355664,-4.71501843319899e-05,-0.00110223013444255,0.000152236559798347,-0.000280721092637215,-8.07357835537204e-05,-7.68870400706945e-05,-1.70365526503957e-05,-0.000271561875460513,-0.000274770522361578,-0.00350399838581517,9.57921269320039e-05,-8.62125035956396e-05,0.000123669575220475,-0.0049476050877848,2.00732584065832e-05,0.000339985695592127,-5.82045753718674e-05,-7.68870400706945e-05,-0.000310190368621122,-0.000172426207815768,-0.000100697890605517,-3.63348407663722e-05,-0.000629236479611883,0.000161860132402047,-0.00350399838581517,-0.000125507320037244,-0.000135302255285019,-0.00021408131986167,0.00028789265680107,0.000123669575220475,-7.68870400706945e-05,-0.000268661727910846,-0.00158342956887303,-0.000100697890605517,-0.00433569891935104,-0.000145550728179344,7.8618445868095e-05,-4.71501843319899e-05,0.000422855006662282,-7.68870400706945e-05,-0.000135302255285019,9.57921269320039e-05,1.00930513138309e-05,0.000131335950170453,-0.000179087933709354,-0.000271561875460513,0.00118026872396282,-4.71501843319899e-05,-0.00350399838581517,-3.63348407663722e-05,-0.000269055940779417,-0.000100697890605517,8.73611142875319e-05,0.000104475650728908,-7.68870400706945e-05,-0.000172426207815768,8.44823622356827e-05,5.37095389434583e-05,2.10977332546491e-05,-0.000248659408415008,-8.44855494079866e-05,0.00028789265680107,-0.00350399838581517,-0.000276777545013651,-7.68870400706945e-05,-9.49874685591823e-05,-0.000122548852984572,8.44823622356827e-05,-5.82045753718674e-05,-0.000218989580804241,-0.00361285864274929,8.44823622356827e-05,-0.000506505101848909,-7.68870400706945e-05,-0.000172426207815768,-7.3856206581624e-06,-1.3546913389284e-05,0.00028789265680107,-0.00350399838581517,-3.32644566825024e-06,-0.001106577679443,0.000123669575220475,0.000192849008533003,0.000123669575220475,-0.00021408131986167,-7.68870400706945e-05,0.00118026872396282,-0.000506505101848909,-0.000185881009020505,-3.32644566825024e-06,-3.32644566825024e-06,0.000152236559798347,-0.000169885776571732,-3.14298032577653e-05
"15:72146497:G:C",1.6736140322493e-06,2.52580801429758e-06,-1.53685808168547e-06,-3.76964553172598e-06,6.07392329321499e-07,3.00914703288413e-06,2.49982571531859e-07,-5.51981402807655e-08,-7.06302828668015e-07,1.31796042257548e-06,-3.32644566825024e-06,0.00875756744838174,-3.32644566825024e-06,-9.43924618734826e-06,1.6736140322493e-06,-2.44070925159434e-06,3.18518552155922e-06,-5.62793715630505e-06,-2.27917108697184e-05,-3.1591614453319e-06,-4.70413127295899e-06,2.98715306534802e-06,-1.99667072120491e-06,-1.53685808168547e-06,-2.26514956125357e-07,-3.61616806099363e-06,2.10994640070794e-06,-9.43924618734826e-06,1.44279161595762e-06,-2.59830893689639e-06,-8.99621857897159e-07,1.94265341679767e-06,2.52580801429758e-06,-2.56308653376891e-05,-1.61023537437188e-06,-1.53685808168547e-06,-2.85601567284743e-07,-8.34600309485012e-06,-1.6848761470456e-06,2.98715306534802e-06,1.6736140322493e-06,-1.62182078522477e-06,2.10994640070794e-06,-1.70138207700177e-06,4.084350075928e-07,4.52924229321638e-06,-5.62793715630505e-06,-1.53685808168547e-06,-2.78535533322355e-05,-9.43924618734826e-06,-1.99667072120491e-06,-7.06302828668015e-07,-1.03411766527728e-06,2.71751257407971e-06,2.98715306534802e-06,-0.00210254812520905,-2.78734667258362e-06,-4.70413127295899e-06,4.0217527974562e-06,2.10994640070794e-06,-1.53685808168547e-06,-2.43251896661079e-05,2.89521272911486e-06,-1.99667072120491e-06,9.13509867750406e-07,-1.07555752997257e-05,1.44279161595762e-06,-8.99621857897159e-07,4.79400179997924e-06,-1.53685808168547e-06,-2.78734667258362e-06,1.6736140322493e-06,2.49982571531859e-07,2.28822675651941e-06,-3.81791372561224e-06,-8.34600309485012e-06,-0.00230383279458746,-8.99621857897159e-07,2.98715306534802e-06,-7.06302828668015e-07,-2.78535533322355e-05,-1.99667072120491e-06,1.56119832261936e-06,1.87148827368588e-06,-1.53685808168547e-06,-9.43924618734826e-06,1.5224157179361e-06,1.00456487217571e-06,5.15332678752145e-07,-6.72443524596389e-06,-8.99621857008981e-07,4.0217527974562e-06,2.98715306534802e-06,-2.4967306916146e-05,-1.53685808168547e-06,-9.26918423527212e-06,-2.5251342048449e-06,1.5224157179361e-06,-5.62793715630505e-06,-4.81792262263525e-06,2.96477193373335e-06,1.5224157179361e-06,-4.24354867245569e-06,-1.53685808168547e-06,-9.43924618734826e-06,-3.34080398900483e-08,-2.26514956125357e-07,4.0217527974562e-06,2.98715306534802e-06,-5.51981402807655e-08,-8.97892934492717e-06,2.10994640070794e-06,3.03076270835589e-06,2.10994640070794e-06,-4.70413127295899e-06,-1.53685808168547e-06,-0.00230383279458746,-4.24354867245569e-06,-0.00177631195270145,-5.51981402807655e-08,-5.51981402807655e-08,2.52580801429758e-06,-3.61616806099363e-06,-5.32480716408656e-07
"15:72147443:C:T",9.57921269320039e-05,0.000152236559798347,0.0017186194818315,-0.000181477417823928,3.28305482382163e-05,0.000190637464942078,1.00930513138309e-05,-3.32644566825024e-06,-3.63348407663722e-05,-0.0011335597441553,-0.000156503581028922,-3.32644566825024e-06,0.00888309542695431,-0.000383481334744751,9.57921269320039e-05,-0.000118400890651849,0.000200298897275353,-0.000249051573922188,2.52288721371841e-05,-0.000153065779895378,-0.00021408131986167,0.000188399130105488,-0.000100697890605517,0.0017186194818315,-0.00490144460374697,-0.000169885776571732,0.000123669575220475,-0.000383481334743863,-0.00132136171895159,-0.000130826185776201,-4.71501843319899e-05,0.000110129679582904,0.000152236559798347,8.41721730413525e-05,-8.07357835537204e-05,0.0017186194818315,-1.70365526503957e-05,-0.000347466595684409,-8.46312582094555e-05,0.000188399130105488,9.57921269320039e-05,-8.62125035956396e-05,0.000123669575220475,-9.0396563104278e-05,2.00732584065832e-05,-0.000915059495381065,-0.000249051573922188,0.0017186194818315,0.000139232181950888,-0.000383481334743863,-0.000534608492016808,-3.63348407663722e-05,-5.45807320504466e-05,-0.001155044640341,0.000188399130105488,-0.000781329444279777,-0.000135302255285019,-0.00021408131986167,0.00028789265680107,0.000123669575220475,0.0017186194818315,7.64742980603472e-05,0.000179167904897248,-0.000534608492016808,4.75065079541537e-05,-0.000425864510894769,7.8618445868095e-05,-4.71501843319899e-05,0.000422855006662282,0.0017186194818315,-0.000135302255285019,9.57921269320039e-05,-0.00101323484294902,0.000131335950170453,-0.000179087933709354,-0.000347466595684409,-0.00146753169345359,-4.71501843319899e-05,0.000188399130105488,-3.63348407663722e-05,0.000140093516166395,-0.000100697890605517,8.73611142875319e-05,-0.0012282706085438,0.0017186194818315,-0.000383481334743863,8.44823622356827e-05,5.37095389434583e-05,2.10977332546491e-05,-0.00365424972037776,-4.71501843328781e-05,0.00028789265680107,0.000188399130105488,3.20705476752892e-05,0.0017186194818315,-0.000377395635958067,-0.000122548852984572,8.44823622356827e-05,-0.000249051573922188,-0.000218989580804241,0.000186133514468168,8.44823622356827e-05,-0.000198204982111427,0.0017186194818315,-0.000383481334743863,-7.3856206581624e-06,-0.00490144460374697,0.00028789265680107,0.000188399130105488,-3.32644566825024e-06,-0.00026179967116402,0.000123669575220475,0.000192849008533003,0.000123669575220475,-0.00021408131986167,0.0017186194818315,-0.00146753169345359,-0.000198204982111427,0.00107480113467506,-3.32644566825024e-06,-3.32644566825024e-06,0.000152236559798347,-0.000169885776571732,-3.14298032577653e-05
"15:72148110:C:T",0.000226266101080341,0.00035416912800379,-0.000188039059280776,-4.98527043122365e-05,7.81354406473866e-05,0.00044813861071713,1.30358682151055e-05,-0.000433070729846108,-8.81088911208749e-05,0.000149694892730423,-0.000172426207815768,-9.43924618734826e-06,-0.000383481334744751,0.0317862430516955,0.000226266101080341,-0.000290557547576675,-0.00117042101526099,-0.00059782855117696,-0.000518693742756149,-0.000387743923664807,-0.000530537416835841,-0.00233912162391103,-0.000255009163399933,-0.000188039059280776,-3.84736073568703e-05,-0.00512589926213636,0.000289443691025681,0.00759327780818086,-0.00294775703578232,-0.000340086937950623,-0.000801292255102837,-0.00125678555254627,0.00035416912800379,-0.00040912030289153,-0.000198847965929616,-0.000188039059280776,-4.83981896781671e-05,0.00453123963983604,-0.000578064346223428,-0.00233912162391103,0.000226266101080341,-0.00104554077860008,0.000289443691025681,-0.00811294833052756,4.16419046391781e-05,0.000235604427053282,-0.00059782855117696,-0.000188039059280776,-0.000129691899578788,0.00759327780818086,-0.00086541152098718,-8.81088911208749e-05,-0.000139642599285672,-0.00273935154072724,-0.00233912162391103,-0.00219198684800581,-0.00467397723932006,-0.000530537416835841,0.000675023047914003,0.000289443691025681,-0.000188039059280776,-0.000428003482903172,-0.0038148425529938,-0.00086541152098718,-0.00312669333957949,0.00655493114192929,-0.00140302165179751,-0.000801292255102837,-0.00129633067049006,-0.000188039059280776,-0.00467397723932006,0.000226266101080341,1.30358682151055e-05,-0.00118643063077339,-0.000446492921576613,0.00453123963983604,-0.00201895565305144,-0.000118638039064756,-0.00233912162391103,-8.81088911208749e-05,-0.00030809603510118,-0.000255009163399933,0.000201712050090563,0.00023280111815982,-0.000188039059280776,0.00759327780818086,0.000193318735852266,0.000121704988576887,-0.00111485110855902,0.00105819119782424,-0.000118638039063867,0.000675023047914003,-0.00233912162391103,-0.000585548169973471,-0.000188039059280776,0.00757911414001722,-0.000302161703275239,0.000193318735852266,-0.00059782855117696,-0.00054420170106706,-0.00173310922085346,-0.00164191024857274,-0.000499980770920949,-0.000188039059280776,0.00759327780818086,-0.00110253902744617,-3.84736073568703e-05,0.000675023047914003,-0.00233912162391103,-0.000433070729846108,-0.00294942478580129,0.000289443691025681,0.000454832547147177,0.000289443691025681,-0.000530537416835841,-0.000188039059280776,-0.00201895565305144,-0.000499980770920949,0.00063145513866214,-0.000433070729846108,-9.43924618734826e-06,0.00035416912800379,-0.00512589926213636,-8.93930847336577e-05
"15:72156956:G:A",0.00237796899291975,-0.000115417719772637,4.76053942000121e-05,0.000104261700737851,0.0011165090681704,-0.000127964927813196,-9.93846523655861e-06,1.6736140322493e-06,2.28334189147361e-05,-5.03431803577925e-05,9.57921269320039e-05,1.6736140322493e-06,9.57921269320039e-05,0.000226266101080341,-0.000740464235443383,7.26646350033278e-05,-0.00014051254619396,0.000149609199342926,-0.000169349994582291,-0.00121303159333142,0.000128497933474137,-0.000126942113087836,5.9606514962951e-05,4.76053942000121e-05,6.80587809753774e-06,0.000102536539392517,-8.26835940772597e-05,0.000226266101080341,-5.47512886823753e-05,-0.000998078418765758,2.82894795091693e-05,-7.61923545375964e-05,-0.000115417719772637,-0.000223480867158621,4.95506872892904e-05,4.76053942000121e-05,8.55480877071102e-06,-0.00179739843974058,5.1517453566241e-05,-0.000126942113087836,0.00237796899291975,4.78571939739325e-05,-8.26835940772597e-05,4.99404072789034e-05,-1.49031897143104e-05,-0.000258836432920795,0.000149609199342926,4.76053942000121e-05,-0.000221221577809239,0.000226266101080341,5.9606514962951e-05,2.28334189147361e-05,3.2028334612022e-05,-0.000473918195981859,-0.000126942113087836,9.47096732408781e-05,8.11857077316347e-05,0.000128497933474137,-0.000196440132021358,-8.26835940772597e-05,4.76053942000121e-05,-0.000221221577809239,-0.000122730931866322,5.9606514962951e-05,-3.37811134523136e-05,0.00025012028142779,-5.47512886823753e-05,2.82894795091693e-05,0.000154529395844705,4.76053942000121e-05,8.11857077316347e-05,0.00237796899291975,-9.93846523655861e-06,-9.31130912880107e-05,0.000107159717872563,0.000205316473675943,0.000179492957659733,2.82894795091693e-05,-0.000126942113087836,2.28334189147361e-05,-0.000278594773835295,5.9606514962951e-05,-5.90103002169329e-05,-7.34892256568642e-05,4.76053942000121e-05,0.000226266101080341,-5.76067266058189e-05,-3.68408533502063e-05,-2.08151309468718e-05,-0.00112022525173394,2.82894795091693e-05,-0.000196440132021358,-0.000126942113087836,-0.000221221577810127,4.76053942000121e-05,0.000223269578495611,7.47596271972739e-05,-0.000331318334062303,0.000149609199342926,0.000130956763216616,-0.000125907513356616,-5.76067266058189e-05,-0.00126530201505037,4.76053942000121e-05,0.000226266101080341,-1.27748491074442e-06,6.80587809753774e-06,-0.000196440132021358,-0.000126942113087836,1.6736140322493e-06,-0.000195557739255392,-8.26835940772597e-05,0.000386667480690939,1.78377301720545e-05,0.000128497933474137,4.76053942000121e-05,0.000179492957659733,-0.00126530201505037,0.000114305776265589,1.6736140322493e-06,1.6736140322493e-06,-0.000115417719772637,0.000102536539392517,1.57501187345588e-05
"15:72162223:T:C",7.26646350033278e-05,0.000115686889498257,-5.81201300686729e-05,-0.000136126450082763,2.48945964180791e-05,0.000144527677286455,-0.000833498318930204,-2.44070925159434e-06,-2.74904783212904e-05,5.35759879536357e-05,-0.000118400890651849,-2.44070925159434e-06,-0.000118400890651849,-0.000290557547576675,7.26646350033278e-05,0.0592879477850374,-0.00268412604801949,-0.000188433161122603,-0.0044926834735417,-0.000670524131810346,-0.000161777890515857,0.000142920447818717,-0.000680510427171654,-5.81201300686729e-05,-0.00109166877167421,-0.000128309736631138,9.39211698316456e-05,-0.000290557547576675,6.01745884418747e-05,-0.000813663781580765,-3.54461511440363e-05,8.41099807251666e-05,0.000115686889498257,-0.0045371489632684,-0.000260840080021474,-5.81201300686729e-05,-1.25011515796913e-05,-0.000263035246430121,-6.38300164697014e-05,0.000142920447818717,7.26646350033278e-05,-6.41880789666871e-05,9.39211698316456e-05,-6.72674309631915e-05,-0.0014233689603218,-0.00377701233465721,-0.000188433161122603,-5.81201300686729e-05,-0.00457109373652731,-0.000290557547576675,-7.56777232986394e-05,-2.74904783212904e-05,-4.09125606770644e-05,0.00012386260095365,0.000142920447818717,-0.000121941385603286,-0.00010199185157056,-0.000161777890515857,0.000218032964507842,9.39211698316456e-05,-5.81201300686729e-05,-0.00451434362487024,0.000136291770664876,-7.56777232986394e-05,3.65239225184055e-05,-0.000322862921945166,6.01745884418747e-05,-3.54461511440363e-05,0.000319572736938056,-5.81201300686729e-05,-0.00010199185157056,7.26646350033278e-05,8.25441374896485e-06,-0.00234722957132938,-0.000135124383050744,-0.000263035246430121,-0.000782470415756187,-3.54461511440363e-05,0.000142920447818717,-2.74904783212904e-05,-0.00456975373830648,-0.000680510427171654,6.65331888098919e-05,8.00126708995208e-05,-5.81201300686729e-05,-0.000290557547576675,6.44395097708639e-05,4.10502918004596e-05,1.72502919060236e-05,-0.00436357250150543,-3.54461511449244e-05,0.000218032964507842,0.000142920447818717,-0.00452567660794134,-5.81201300686729e-05,-0.000286011511573037,-0.000232512910122828,6.44395097708639e-05,-0.000188433161122603,-0.00016541976233686,0.000141293607761384,6.44395097708639e-05,-0.00062894768576971,-5.81201300686729e-05,-0.000290557547576675,-0.00134852261237484,-0.00109166877167421,0.000218032964507842,0.000142920447818717,-2.44070925159434e-06,-0.00420921214649184,9.39211698316456e-05,0.000146115648378853,9.39211698316456e-05,-0.000161777890515857,-5.81201300686729e-05,-0.000782470415756187,-0.00062894768576971,-0.000140857725342336,-2.44070925159434e-06,-2.44070925159434e-06,0.000115686889498257,-0.000128309736631138,-0.000849497318695214
"15:72163885:A:G",-0.00014051254619396,-0.000962942008997381,0.000100936710622612,-0.0022567861227154,-4.66037535291619e-05,-0.000290720782382792,-0.00166392986559671,3.18518552155922e-06,4.89458180004121e-05,-0.00011667160189166,0.000200298897275353,3.18518552155922e-06,0.000200298897275353,-0.00117042101526099,-0.00014051254619396,-0.00268412604801949,0.0868010884000308,-0.00279039975915385,-0.00137971525549352,0.00018564359540818,0.000264947726708264,-0.00028895064701473,-0.00214710625127701,0.000100936710622612,-0.00273400006869906,-0.00165486257890102,-0.000803499230895177,-0.00117042101526099,-0.000345010126013179,0.000152140108910181,5.93259539556357e-05,-0.00334191369059678,-0.000962942008997381,-0.00126183145217151,0.00010462936856559,0.000100936710622612,-0.000778536208867031,-0.00134601756774888,0.000108360719652367,-0.00028895064701473,-0.00014051254619396,9.6436729895899e-05,-0.000803499230895177,-0.00238438765982085,-0.000198494569854546,-0.000925638553403552,-0.00279039975915385,0.000100936710622612,-0.00202676057757367,-0.00117042101526099,-0.00191189075517784,4.89458180004121e-05,6.64310136038182e-05,-0.000471823576836172,-0.00028895064701473,-0.00153814622133552,-0.0019070665563472,0.000264947726708264,-0.000455102144483632,-0.000803499230895177,0.000100936710622612,-0.00214712600047573,-0.00210775438762045,-0.00191189075517784,-7.73505826741072e-05,-0.00105678899751638,-0.00012488892662077,5.93259539556357e-05,-0.00132303948721813,0.000100936710622612,-0.0019070665563472,-0.00014051254619396,-2.5121562580388e-05,5.70912583253147e-05,0.000221612894979017,-0.00134601756774888,0.000211138692108648,5.93259539556357e-05,-0.00028895064701473,4.89458180004121e-05,-0.00198168658912756,-0.00214710625127701,-0.00103819292490037,-0.00016914825123937,0.000100936710622612,-0.00117042101526099,-3.95842943037295e-05,-8.31147949913458e-05,-5.29504320301299e-05,0.000273512568687906,-0.0018131112830222,-0.000455102144483632,-0.00028895064701473,-0.00212867369861236,0.000100936710622612,-0.0011039139217095,-0.00164712227772856,-0.000130213599270235,-0.00279039975915385,0.000269514276626914,-0.000287160013833443,-0.000130213599270235,0.000239482462882634,0.000100936710622612,-0.00117042101526099,-0.00346146841183703,-0.00273400006869906,-0.000455102144483632,-0.00028895064701473,3.18518552155922e-06,-0.000196461150592242,-0.000803499230895177,-0.000292470769642783,-0.000186026446840515,0.000264947726708264,0.000100936710622612,0.000211138692108648,0.000239482462882634,0.000238503611390328,3.18518552155922e-06,3.18518552155922e-06,-0.000962942008997381,-0.00165486257890102,-0.00131800234972079
"15:72165831:G:A",0.000149609199342926,0.000236122969368147,-0.000122117187721926,-0.0011176593110962,5.14801700397527e-05,0.000296740534793116,1.28845508156061e-05,-5.62793715630505e-06,-5.74721212744933e-05,0.000104767778330128,-5.82045753718674e-05,-5.62793715630505e-06,-0.000249051573922188,-0.00059782855117696,0.000149609199342926,-0.000188433161122603,-0.00279039975915385,0.0433684491095567,0.00159902228822961,-0.000247003531807621,-0.000530352119149313,0.000292864668060666,-0.00169046819388807,-0.000122117187721926,-2.29320917579656e-05,-0.000271625049043323,0.000192357042704039,-0.00059782855117696,-0.0014781155004906,-0.00411219559521392,-7.57500616819229e-05,0.000169136109389179,0.000236122969368147,0.00166137639904562,-0.000128614075944888,-0.000122117187721926,-0.00380822857236929,-0.000675770157698707,-0.000135192316892407,0.000292864668060666,0.000149609199342926,-0.000979807178144831,0.000192357042704039,-0.000149035883058701,2.98373359557402e-05,-0.000770024683169446,0.00413028006474825,-0.000122117187721926,0.00181871007489054,-0.00059782855117696,-0.000162350060991301,-5.74721212744933e-05,-0.00415508578266177,-0.00126786105811494,0.000292864668060666,-0.00107742010038869,-0.00021696644861624,-0.000530352119149313,-0.00205577448863625,0.000192357042704039,-0.000122117187721926,0.0016530922536262,0.000276866380535701,-0.000162350060991301,7.19932840853588e-05,-0.000596391915835603,0.000120283737646609,-7.57500616819229e-05,-0.00259827769871457,-0.000122117187721926,-0.00021696644861624,0.000149609199342926,1.28845508156061e-05,-0.00301045300301794,-0.00064743163156411,-0.000675770157698707,-0.00107080997523301,-7.57500616819229e-05,0.000292864668060666,-5.74721212744933e-05,0.00172004022544847,-0.00169046819388807,0.000135220274573022,0.00015942735392116,-0.000122117187721926,-0.00059782855117696,-0.00172364392275792,8.25556641572689e-05,-0.00113623057284595,-3.74130445814913e-05,-7.57500616819229e-05,-0.00205577448863625,0.000292864668060666,0.00154633753856714,-0.000122117187721926,-0.000516413338075949,-0.000843067191092395,0.000130303796564313,0.00413028006474825,-0.000602383792199568,0.000288940248031722,0.000130303796564313,-0.00452665970980259,-0.000122117187721926,-0.00059782855117696,-0.00358516707193424,-2.29320917579656e-05,-0.00205577448863625,0.000292864668060666,-5.62793715630505e-06,0.00106355069696473,0.000192357042704039,0.000300568742796159,0.000192357042704039,-0.000530352119149313,-0.000122117187721926,-0.00107080997523301,-0.00452665970980259,-0.000295036750601163,-5.62793715630505e-06,-5.62793715630505e-06,0.000236122969368147,-0.000271625049043323,-0.00103945523320004
"15:72169466:G:A",-0.000169349994582291,0.000470152065671137,-0.000117332899560729,0.00169809778521657,-4.68370914674665e-05,-0.00132490329464208,-0.000993800831938785,2.939050098405e-06,3.91096645637745e-05,-0.00124571750223268,-0.000285202176362631,-2.27917108697184e-05,2.52288721371841e-05,-0.000518693742756149,-0.000169349994582291,-0.0044926834735417,-0.00137971525549352,0.00159902228822961,0.0915587384595926,-0.000585779482086046,0.00111787707364197,-0.00136000745293874,-0.000370151268479724,-0.000117332899561617,-0.00536739590637492,-0.000667063416205593,-0.000715323907852117,-0.000518693742756149,0.000104450860767713,-0.00150076063473037,-0.00378403924214066,-0.00169775721284537,0.000470152065671137,0.00286176030820862,-0.00289122209903248,-0.000117332899561617,-0.00211639963169752,-0.000932778421551816,-0.000225544130710631,-0.00136000745293874,-0.000169349994582291,-0.00268022554057801,-0.000715323907852117,-0.000436040308790631,-0.00222506945807499,0.000321832171220393,0.00159902228822872,-0.000117332899561617,0.00237074059288656,-0.000518693742756149,-0.00117578620959957,3.91096645637745e-05,-0.00596889857246286,0.000189383560036838,-0.00136000745293874,-0.00357690330127269,-0.00122087174606289,0.00111787707364197,-0.00511204262416776,-0.000715323907852117,-0.000117332899561617,0.00445301202707515,-0.000173576223290617,-0.00117578620959957,5.12434168236098e-05,-0.00164528571225731,-0.000933255554129708,-0.00378403924214066,0.0011349160994758,-0.000117332899561617,-0.00122087174606289,-0.000169349994582291,-0.00385749995591489,-0.00111158886591944,0.000599710022345157,-0.0035129137547818,-0.00122879990184233,-0.000255147355594509,-0.00136000745293874,3.91096645637745e-05,0.00358357366735529,-0.000370151268479724,-0.00116314481354607,-0.00145015857184738,-0.000117332899561617,-0.000518693742756149,-0.00127817269847252,-0.00577920269047461,-0.00108122219150797,-3.6246066078327e-05,-0.00107619059460173,-0.00511204262416776,-0.00136000745293874,0.00407947448256163,-0.000117332899561617,-0.000306735884924692,-0.00122178896297775,0.000115459136676321,0.00159902228822872,0.000459284788441927,-0.00117442967276205,-0.00127817269847252,-0.00132024441368461,-0.000117332899561617,-0.000518693742756149,-0.000268381961988418,-0.00536739590637492,-0.00511204262416776,-0.00136000745293874,2.93905009751683e-06,0.00143342112250622,-0.000715323907852117,0.000346975282026207,-0.00122571250367365,0.00111787707364197,-0.000117332899561617,-0.00122879990184233,-0.00132024441368461,-0.000228087637730745,2.93905009751683e-06,-2.27917108697184e-05,0.000470152065671137,-0.000667063416205593,-0.000295496751716584
"15:72170400:G:A",-0.00121303159333142,0.000141976202432836,-7.42744678765561e-05,-0.000178228539243541,3.1187318391801e-05,-0.00124353365312846,9.77161911475122e-06,-3.1591614453319e-06,-3.48806841250493e-05,-0.00191194792778671,-0.00053726501846274,-3.1591614453319e-06,-0.000153065779895378,-0.000387743923664807,-0.00121303159333142,-0.000670524131810346,0.00018564359540818,-0.000247003531807621,-0.000585779482086046,0.0636105233998814,-0.000211232228293667,0.000174547000646896,-0.00130436842390402,-7.42744678765561e-05,-1.28918464419314e-05,-0.000166499673745157,-0.00153575450094934,-0.000387743923664807,7.43367810702722e-05,0.000456698128155075,-0.00335511494440954,0.000103569117394287,0.000141976202432836,-0.000623315398945223,0.000732108956587929,-7.42744678765561e-05,-1.62239850123314e-05,-0.000349595997391816,-8.18397587085684e-05,0.000174547000646896,-0.00121303159333142,-8.33077351405365e-05,-0.00153575450094934,-8.74118964677706e-05,-0.00202335467093562,-0.00392112190157601,-0.000247003531807621,-7.42744678765561e-05,-0.000668239434246765,-0.000387743923664807,-9.76046535781094e-05,-3.48806841250493e-05,-0.000656496749072311,1.99960528552978e-05,0.000174547000646896,-0.00317350150920426,-0.000131892264544575,-0.000211232228293667,0.000262057171751096,-0.00153575450094934,-7.42744678765561e-05,-0.000595628839415774,-0.00386148263356656,-9.76046535781094e-05,4.51762719722026e-05,-0.000433110266080838,7.43367810702722e-05,-0.00335511494440954,-0.000646422362449606,-7.42744678765561e-05,-0.000131892264544575,-0.00121303159333142,9.77161911475122e-06,0.000123235494044138,-0.000175773671202251,-0.000349595997391816,-0.00278871975239614,-4.53032875062931e-05,0.000174547000646896,-3.48806841250493e-05,-0.000646584293285457,-0.00130436842390402,-0.00185678314011106,-0.00200953595821396,-7.42744678765561e-05,-0.000387743923664807,7.97318408327641e-05,-0.00208335784276237,2.04076236034467e-05,-0.0006314705191377,-4.53032875062931e-05,0.000262057171751096,0.000174547000646896,-0.000610278038619683,-7.42744678765561e-05,-0.000381235294616644,-0.000861021350455182,7.97318408327641e-05,-0.000247003531807621,-0.000216243596721455,0.000172558807900458,7.97318408327641e-05,0.000857745705181046,-7.42744678765561e-05,-0.000387743923664807,-6.82649264760471e-06,-1.28918464419314e-05,0.000262057171751096,0.000174547000646896,-3.15916144622008e-06,-0.000255347491946445,-0.00153575450094934,-0.00257388979898909,-0.00353489018856656,-0.000211232228293667,-7.42744678765561e-05,-0.00278871975239614,0.000857745705181046,-0.000182599545656359,-3.15916144622008e-06,-3.1591614453319e-06,0.000141976202432836,-0.000166499673745157,-3.00162277353522e-05
"15:72172798:G:A",0.000128497933474137,-0.00226416686812403,-0.000104783806638586,-0.000251939820753222,4.42352975884575e-05,0.000254418729810801,1.20641114254028e-05,-4.70413127295899e-06,-4.93273280293138e-05,-0.000240648275127597,-0.00021408131986167,-4.70413127295899e-06,-0.00021408131986167,-0.000530537416835841,0.000128497933474137,-0.000161777890515857,0.000264947726708264,-0.000530352119149313,0.00111787707364197,-0.000211232228293667,0.0205816656570503,0.000251255508714188,-0.00388010893999269,-0.000104783806638586,-1.91725015392663e-05,-0.000644908278053968,0.000165339782864038,-0.000530537416834953,0.000104229963889146,-0.000181649863547406,-6.46564101245417e-05,0.000146199214042575,-0.00226416686812403,0.0011619689540483,-0.000110249041744837,-0.000104783806638586,-2.41177010247284e-05,-0.000480393064636431,-0.000633943992744967,0.000251255508714188,0.000128497933474137,-0.0011411230097691,0.000165339782864038,-0.00114941836863913,2.61993464487631e-05,-0.00234807517994362,-0.000530352119149313,-0.000104783806638586,0.00132241901157304,-0.000530537416834953,-0.000138643294761209,-4.93273280293138e-05,-7.52022171912614e-05,0.000213641633216355,0.000251255508714188,-0.000224433748034158,-0.000805211468880351,0.00283550812525757,0.000382363733728575,0.000165339782864038,-0.000104783806638586,0.0011568011903087,-0.000281813666398456,-0.000138643294761209,6.26804067831443e-05,-0.00059005545147528,-0.00167692204106906,-6.46564101245417e-05,0.000558111675366568,-0.000104783806638586,-0.000805211468880351,0.000128497933474137,1.20641114254028e-05,0.000173407559721284,0.000581221586437586,-0.000480393064636431,-0.000429324428521838,-6.46564101245417e-05,0.000251255508714188,-4.93273280293138e-05,0.00120326724726993,-0.00388010893999269,0.000116593133805409,-0.000228016742172876,-0.000104783806638586,-0.000530537416834953,0.000112524294310745,7.1455721343483e-05,-0.00132105815698225,-0.000841464318791729,-6.46564101254299e-05,0.000382363733728575,0.000251255508714188,0.00105004647524876,-0.000104783806638586,-0.000521729264583826,-0.000167683184359113,-0.00192407262134697,-0.000530352119149313,0.00261106977040004,0.000248052279228084,0.000112524294310745,-0.000273723459089936,-0.000104783806638586,-0.000530537416834953,-1.27451538389778e-05,-1.91725015392663e-05,0.000382363733728575,0.000251255508714188,-4.70413127295899e-06,0.000591834153062187,0.000165339782864038,0.000257542686091128,-0.00276672401337574,0.00283550812525757,-0.000104783806638586,-0.000429324428521838,-0.000273723459089936,-0.000254072522211324,-4.70413127295899e-06,-4.70413127295899e-06,-0.00226416686812403,-0.000644908278053968,-4.45422959520769e-05
"15:72173831:G:A",-0.000126942113087836,-0.000208720883965618,9.38460593804535e-05,-0.0062733134080748,-4.25512697175279e-05,-0.000179133603525727,-2.24899075664808e-05,2.98715306534802e-06,4.52217622877171e-05,-0.000104817993664241,-0.00350399838581517,2.98715306534802e-06,0.000188399130105488,-0.00233912162391103,-0.000126942113087836,0.000142920447818717,-0.00028895064701473,0.000292864668060666,-0.00136000745293874,0.000174547000646896,0.000251255508714188,0.0852620389603871,-0.00340306308884575,9.38460593804535e-05,1.2147698430276e-05,0.00020067805460311,-0.000167105192442563,-0.00233912162391103,-0.000112447546737116,-0.00339430370715821,5.50250949880038e-05,-0.00256809113979006,-0.000208720883965618,-0.00147400406679576,9.73602145926122e-05,9.38460593804535e-05,1.5269426114628e-05,-0.00251537175865479,0.000100913103382894,0.00315384176287647,-0.000126942113087836,-0.00802478630295589,-0.000167105192442563,9.39262891703763e-05,-3.12798770645273e-05,-0.00184670271841458,0.000292864668060666,9.38460593804535e-05,-0.00152775623661494,-0.00233912162391103,0.000115525061658239,4.52217622877171e-05,6.17429564631067e-05,-0.000847128133805164,0.00315384176287647,-0.00108046115084015,0.000158379788958385,0.000251255508714188,-0.000398643927988829,-0.000167105192442563,9.38460593804535e-05,-0.00147441737573217,-0.000625466897042237,0.000115525061658239,-6.99030916706533e-05,-0.00222412559836105,-0.00450097274890382,5.50250949880038e-05,-0.000599079905621025,9.38460593804535e-05,0.000158379788958385,-0.000126942113087836,-2.24899075664808e-05,-0.000192403460237855,0.000209094003611021,-0.00251537175865479,-0.00114690546842411,5.50250949880038e-05,0.00315384176287647,4.52217622877171e-05,-0.00159307024834376,-0.00340306308884575,-0.000119817927466848,-0.00015144846127324,9.38460593804535e-05,-0.00233912162391103,-0.00476012468101583,-0.000710513533650037,-0.00882340625195965,-0.00225948394399822,5.50250949871156e-05,-0.000398643927988829,0.00315384176287647,-0.00143622651203934,9.38460593804535e-05,-0.00227271338809665,-0.00242961051761093,-0.000117389111533583,0.000292864668060666,0.000255743563565503,0.00266550362479823,-0.00476012468101583,0.000226506362435153,9.38460593804535e-05,-0.00233912162391103,-7.15420752417373e-06,1.2147698430276e-05,-0.000398643927988829,0.00315384176287647,2.98715306534802e-06,-0.00068348683919961,-0.000167105192442563,-0.00261386742038017,-0.00570402916324841,0.000251255508714188,9.38460593804535e-05,-0.00114690546842411,0.000226506362435153,0.000225344845450337,2.98715306534802e-06,2.98715306534802e-06,-0.000208720883965618,0.00020067805460311,2.81129624450926e-05
"15:72180440:C:T",5.9606514962951e-05,9.41555802347338e-05,-4.88462246766019e-05,-0.00597136729816938,2.06153396238307e-05,-0.00380619348986322,7.12347407549885e-06,-1.99667072120491e-06,-2.29760244234711e-05,-0.00198223012568199,-0.000100697890605517,-1.99667072120491e-06,-0.000100697890605517,-0.000255009163399933,5.9606514962951e-05,-0.000680510427171654,-0.00214710625127701,-0.00169046819388807,-0.000370151268479724,-0.00130436842390402,-0.00388010893999269,-0.00340306308884575,0.114597721111883,-4.88462246766019e-05,-0.00277241059388977,-0.000109252605720478,7.6759412099392e-05,-0.000255009163399045,4.97417749878437e-05,-0.00144989897527381,-2.95775049687919e-05,-0.00471257314516915,9.41555802347338e-05,-0.000340733618371836,-0.000902711332603445,-4.88462246766019e-05,-1.02506993497897e-05,-0.000229698182740101,-5.36475429102623e-05,-0.00340306308884575,5.9606514962951e-05,-5.36226944269913e-05,7.6759412099392e-05,-5.62169244116006e-05,1.30590542983811e-05,-0.0022312164948266,-0.00169046819388807,-4.88462246766019e-05,-0.000354608681558233,-0.000255009163399045,-6.3647925338195e-05,-2.29760244234711e-05,-3.41270890977796e-05,-0.00204052636983398,-0.00340306308884575,-0.000103481197641919,-8.6338199071001e-05,-0.00388010893999269,0.000173153712826668,7.6759412099392e-05,-4.88462246766019e-05,-0.000339991748252721,-0.000174228518971198,-6.3647925338195e-05,3.04050263650879e-05,-0.000284969611282548,4.97417749878437e-05,-2.95775049687919e-05,-0.00106647529655479,-4.88462246766019e-05,-8.6338199071001e-05,5.9606514962951e-05,7.12347407549885e-06,-0.00204213008793452,-0.00354667965572641,-0.000229698182740101,-0.00320969797969095,-2.95775049687919e-05,-0.00340306308884575,-2.29760244234711e-05,-0.000310886170646008,0.00064992005841269,5.47716852459246e-05,-0.00209068322535355,-4.88462246766019e-05,-0.000255009163399045,5.31172933504465e-05,-0.00237562315061002,1.48659772367665e-05,-0.002089268740737,-2.957750496968e-05,0.000173153712826668,-0.00340306308884575,-0.000342692788261267,-4.88462246766019e-05,-0.000250838084081551,0.000566166345626229,5.31172933504465e-05,-0.00169046819388807,-0.00373676318367888,-0.00361491346822262,5.31172933504465e-05,-0.00125824597526858,-4.88462246766019e-05,-0.000255009163399045,-0.00171561048286151,-0.00277241059388977,0.000173153712826668,-0.00340306308884575,-1.99667072120491e-06,-0.0041806215735285,7.6759412099392e-05,0.000117932317162506,7.6759412099392e-05,-0.00388010893999269,-4.88462246766019e-05,-0.00320969797969095,-0.00125824597526858,-0.000120379698593354,-1.99667072120491e-06,-0.00449495841282577,9.41555802347338e-05,-0.000109252605720478,-0.00163061286626132
"15:72180982:C:T",4.76053942000121e-05,7.60358572629016e-05,0.0017186194818315,-8.75035327032592e-05,1.62784162611729e-05,9.48438719969857e-05,5.81894965989704e-06,-1.53685808168547e-06,-1.7903192986779e-05,-0.00126742300393623,-7.68870400706945e-05,-1.53685808168547e-06,0.0017186194818315,-0.000188039059280776,4.76053942000121e-05,-5.81201300686729e-05,0.000100936710622612,-0.000122117187721926,-0.000117332899561617,-7.42744678765561e-05,-0.000104783806638586,9.38460593804535e-05,-4.88462246766019e-05,-0.0116399550446999,-6.25781156138316e-06,-8.31405758638937e-05,6.16486606714872e-05,-0.000188039059279888,3.97827161684461e-05,-6.28406075282584e-05,-2.29167140259889e-05,5.55195148592702e-05,7.60358572629016e-05,-9.77970702749076e-05,-3.95673837489952e-05,0.0017186194818315,-7.8693623493109e-06,-0.00017019077367042,-4.13785014012902e-05,9.38460593804535e-05,4.76053942000121e-05,-4.10107154102946e-05,6.16486606714872e-05,-4.29475481515951e-05,1.04089365695614e-05,0.000174321284003298,-0.000122117187721926,0.0017186194818315,-3.69639236401653e-05,-0.000188039059279888,-4.88462246766019e-05,-1.7903192986779e-05,-2.63602453181022e-05,8.2024238095002e-05,9.38460593804535e-05,-0.000798893963585456,-6.59982828938865e-05,-0.000104783806638586,0.000143267630224209,6.16486606714872e-05,0.0017186194818315,-9.9721807530706e-05,8.97321561748043e-05,-4.88462246766019e-05,2.42431183865577e-05,-0.000208894346922506,3.97827161684461e-05,-2.29167140259889e-05,0.000210254295379464,0.0017186194818315,-6.59982828938865e-05,4.76053942000121e-05,5.81894965989704e-06,6.6645803646459e-05,-8.74395362115976e-05,-0.00017019077367042,-0.00063041004565445,-2.29167140259889e-05,9.38460593804535e-05,-1.7903192986779e-05,-7.90377974411172e-05,-4.88462246766019e-05,4.37643684652045e-05,-0.00137965209997581,0.0017186194818315,-0.000188039059279888,4.24531527150052e-05,2.70831327391363e-05,1.21592952586624e-05,0.000567814256385191,-2.29167140259889e-05,0.000143267630224209,9.38460593804535e-05,-0.000144125557915764,0.0017186194818315,-0.000185169581412126,-6.00539304391745e-05,4.24531527150052e-05,-0.000122117187721926,-0.000107081768553563,9.28362034464669e-05,4.24531527150052e-05,-9.63672176679253e-05,0.0017186194818315,-0.000188039059279888,-2.21586866810952e-06,-6.25781156138316e-06,0.000143267630224209,9.38460593804535e-05,-1.53685808168547e-06,-0.000999017708794625,6.16486606714872e-05,9.58298553621617e-05,6.16486606714872e-05,-0.000104783806638586,0.0017186194818315,-0.00063041004565445,-9.63672176679253e-05,0.0010690184043991,-1.53685808168547e-06,-1.53685808168547e-06,7.60358572629016e-05,-8.31405758638937e-05,-1.45144065939462e-05
"15:72183013:A:C",6.80587809753774e-06,1.02689345817808e-05,-6.25781156138316e-06,-1.54027045837779e-05,2.47033254652251e-06,1.22380341469608e-05,1.00286335324995e-06,-2.26514956125357e-07,-2.87469436344168e-06,5.34493958515014e-06,-1.3546913389284e-05,-2.26514956125357e-07,-0.00490144460374697,-3.84736073568703e-05,6.80587809753774e-06,-0.00109166877167421,-0.00273400006869906,-2.29320917579656e-05,-0.00536739590637492,-1.28918464419314e-05,-1.91725015392663e-05,1.2147698430276e-05,-0.00277241059388977,-6.25781156138316e-06,0.0719065145912756,-1.47367571692314e-05,8.57867336545581e-06,-3.84736073577585e-05,5.85795023777536e-06,-1.0619253155042e-05,-3.66819194308476e-06,7.8914346266501e-06,1.02689345817808e-05,-0.00544033297072577,-6.55901922375079e-06,-6.25781156138316e-06,-1.17236798580223e-06,-3.40232034607979e-05,-6.86545936190441e-06,1.2147698430276e-05,6.80587809753774e-06,-6.63558617119975e-06,8.57867336545581e-06,-6.96277753853281e-06,1.65363661164264e-06,-0.0001066907295737,-2.29320917579656e-05,-6.25781156138316e-06,-0.0054658468343769,-3.84736073577585e-05,-8.14603825105564e-06,-2.87469436344168e-06,-4.22045053483089e-06,1.10390866776555e-05,1.2147698430276e-05,-1.36981768203981e-05,-1.1363899724337e-05,-1.91725015392663e-05,1.63588796517899e-05,8.57867336545581e-06,-6.25781156138316e-06,-0.00542019311730346,1.17699212065503e-05,-8.14603825105564e-06,3.70528725834873e-06,-0.00106524125907281,5.85795023777536e-06,-3.66819194308476e-06,1.95035772332375e-05,-6.25781156138316e-06,-1.1363899724337e-05,6.80587809753774e-06,-0.00232173432192528,-0.00259182994206064,-1.55656185931718e-05,-3.40232034607979e-05,-0.000158394565769271,-3.66819194308476e-06,1.2147698430276e-05,-2.87469436344168e-06,-0.00550387508557737,-0.00277241059388977,6.34432544455166e-06,7.59892558566122e-06,-6.25781156138316e-06,-3.84736073577585e-05,-0.00294801592016825,-0.00182852564080171,2.06862012674947e-06,-0.00608623928236174,-3.66819194397294e-06,1.63588796517899e-05,1.2147698430276e-05,-0.00542914899057756,-6.25781156138316e-06,-3.7774552422043e-05,-1.02869572842224e-05,6.18504468796743e-06,-2.29320917579656e-05,-1.96400847070066e-05,1.2055758094931e-05,6.18504468796743e-06,-1.73151757696388e-05,-6.25781156138316e-06,-3.84736073577585e-05,-0.00218962518045274,1.9912903341357e-05,1.63588796517899e-05,1.2147698430276e-05,-2.26514956125357e-07,-0.00515957319694671,8.57867336545581e-06,1.23268023672907e-05,8.57867336545581e-06,-1.91725015392663e-05,-6.25781156138316e-06,-0.000158394565769271,-1.73151757696388e-05,-1.65336453505915e-05,-2.26514956125357e-07,-2.26514956125357e-07,1.02689345817808e-05,-1.47367571692314e-05,-2.18647984429055e-06
"15:72183040:C:A",0.000102536539392517,0.00016240097979292,-8.31405758638937e-05,-0.00359010041423424,3.5261682954868e-05,-0.00188474788543402,1.0587987714139e-05,-3.61616806099363e-06,-3.9194511509244e-05,-0.00350221737993195,-0.000169885776571732,-3.61616806099363e-06,-0.000169885776571732,-0.00512589926213636,0.000102536539392517,-0.000128309736631138,-0.00165486257890102,-0.000271625049043323,-0.000667063416205593,-0.000166499673745157,-0.000644908278053968,0.00020067805460311,-0.000109252605720478,-8.31405758638937e-05,-1.47367571692314e-05,0.0873413537047281,0.000132143254011119,-0.00512589926213636,8.40172650145021e-05,-0.00110707109996078,-5.09988544594719e-05,0.000117582287402662,0.00016240097979292,-0.000702864055520003,-8.73560508880544e-05,-8.31405758638937e-05,-0.00130522538172695,-0.00480595642866977,-9.16247650355473e-05,0.00020067805460311,0.000102536539392517,-9.37690117881473e-05,0.000132143254011119,-0.000208346590786057,2.14274506831202e-05,-0.00131870655083155,-0.000271625049043323,-8.31405758638937e-05,-0.000746182465479528,-0.00512589926213636,-0.000963754450737042,-3.9194511509244e-05,-0.0010546314323836,-0.00261091212842413,0.00020067805460311,-0.000176690496607179,-0.000504520885539428,-0.000644908278053968,0.000305117295298807,0.000132143254011119,-8.31405758638937e-05,-0.000676241234456754,-0.00235427020055656,-0.000963754450737042,5.07771333895235e-05,-0.00530855074281256,8.40172650145021e-05,-5.09988544594719e-05,0.000444919896284368,-8.31405758638937e-05,-0.000504520885539428,0.000102536539392517,1.0587987714139e-05,-0.00158195265893646,-0.000778998637135153,-0.00480595642866977,-0.000338844407662187,-5.09988544594719e-05,0.00020067805460311,-3.9194511509244e-05,-0.000724527324519109,-0.000109252605720478,9.34507250258676e-05,-0.00373002028468772,-8.31405758638937e-05,-0.00512589926213636,9.03458357548459e-05,5.7490916741898e-05,2.21285867780807e-05,0.000369192000095886,-5.09988544594719e-05,0.000305117295298807,0.00020067805460311,-0.000690392116901251,-8.31405758638937e-05,-0.00531205558876291,-0.000132871120567479,9.03458357548459e-05,-0.000271625049043323,-0.000714240598388649,0.000198259195593131,9.03458357548459e-05,-0.000944311291476652,-8.31405758638937e-05,-0.00512589926213636,-0.0013183081165824,-1.47367571692314e-05,0.000305117295298807,0.00020067805460311,-3.61616806099363e-06,-0.000535195965110979,0.000132143254011119,0.000205426290230903,0.000132143254011119,-0.000644908278053968,-8.31405758638937e-05,-0.000338844407662187,-0.000944311291476652,-0.000201948455395673,-3.61616806099363e-06,-3.61616806099363e-06,0.00016240097979292,-0.00265133161453512,-3.423063891006e-05
"15:72184521:T:C",-8.26835940772597e-05,-0.000495375759747674,6.16486606714872e-05,0.000133625495899459,-2.77595479065695e-05,-0.000168373623409934,-1.34850293571631e-05,2.10994640070794e-06,2.9645908089293e-05,-6.66257397474723e-05,0.000123669575220475,2.10994640070794e-06,0.000123669575220475,0.000289443691025681,-8.26835940772597e-05,9.39211698316456e-05,-0.000803499230895177,0.000192357042704039,-0.000715323907852117,-0.00153575450094934,0.000165339782864038,-0.000167105192442563,7.6759412099392e-05,6.16486606714872e-05,8.57867336545581e-06,0.000132143254011119,0.0338917879073311,0.000289443691025681,-0.000808895126183984,-0.00132527213586542,3.65225144252079e-05,-0.000100436951161242,-0.000495375759747674,-0.00070245228228405,6.40990286200349e-05,6.16486606714872e-05,1.07824854520544e-05,0.00026292959441232,6.65760424416462e-05,-0.000167105192442563,-8.26835940772597e-05,-0.00126618794637157,0.0019018056173028,6.37815267658937e-05,-0.00100780240041498,-0.00190944678663918,0.000192357042704039,6.16486606714872e-05,-0.000678201216529395,0.000289443691025681,-0.00329681925113778,2.9645908089293e-05,-0.00155240034675241,-0.000858072166798785,-0.000167105192442563,0.000121634504286483,0.000104639679125995,0.000165339782864038,-0.000259602470688236,0.0019018056173028,6.16486606714872e-05,-0.000714053176320562,-0.000161883082406611,-0.00329681925113778,-4.45824735271216e-05,0.000319466849300731,-0.000808895126183984,3.65225144252079e-05,-0.000390711385543696,6.16486606714872e-05,0.000104639679125995,-8.26835940772597e-05,-0.00106519518753778,-0.000854908116385111,-0.00187824865222552,0.00026292959441232,0.000229705451023854,-0.00340486815314378,-0.000167105192442563,2.9645908089293e-05,-0.000697150446494099,7.6759412099392e-05,-0.00116687541992988,-9.70516198144367e-05,6.16486606714872e-05,0.000289443691025681,-7.57477469761625e-05,-4.84325002112485e-05,-0.00103062505112028,-0.000361841922891237,3.65225144243198e-05,-0.000259602470688236,-0.000167105192442563,-0.000707689145299284,6.16486606714872e-05,0.000285719714962163,9.65571743458682e-05,-0.000697235547757913,0.000192357042704039,-0.00201102129741582,-0.000165822178617603,-0.000697235547757913,-0.00158064656090318,6.16486606714872e-05,0.000289443691025681,-0.00109409746041944,8.57867336545581e-06,-0.000259602470688236,-0.000167105192442563,2.10994640070794e-06,-0.000897863363535478,0.0019018056173028,-0.000169627718624277,-0.000108568085177119,0.000165339782864038,6.16486606714872e-05,0.000229705451023854,-0.00158064656090318,0.000147534334967503,2.10994640070794e-06,2.10994640070794e-06,-0.000495375759747674,0.000132143254011119,1.98462880653949e-05
"15:72186639:T:C",0.000226266101080341,0.000354169128004678,-0.000188039059279888,-4.98527043122365e-05,7.81354406482748e-05,0.00044813861071713,1.30358682151055e-05,-0.000433070729846108,-8.81088911199868e-05,0.000149694892730423,-0.000172426207815768,-9.43924618734826e-06,-0.000383481334743863,0.00759327780818086,0.000226266101080341,-0.000290557547576675,-0.00117042101526099,-0.00059782855117696,-0.000518693742756149,-0.000387743923664807,-0.000530537416834953,-0.00233912162391103,-0.000255009163399045,-0.000188039059279888,-3.84736073577585e-05,-0.00512589926213636,0.000289443691025681,0.0317862430516671,-0.00294775703578321,-0.000340086937950623,-0.000801292255102837,-0.00125678555254627,0.000354169128004678,-0.000409120302890642,-0.000198847965929616,-0.000188039059279888,-4.83981896781671e-05,0.00453123963983693,-0.000578064346223428,-0.00233912162391103,0.000226266101080341,-0.00104554077860008,0.000289443691025681,-0.00811294833052667,4.16419046400662e-05,0.000235604427053282,-0.00059782855117696,-0.000188039059279888,-0.000129691899579676,0.00759327780818086,-0.000865411520988069,-8.81088911199868e-05,-0.000139642599284784,-0.00273935154072724,-0.00233912162391103,-0.00219198684800581,-0.00467397723932095,-0.000530537416834953,0.000675023047914003,0.000289443691025681,-0.000188039059279888,-0.000428003482903172,-0.0038148425529938,-0.000865411520988069,-0.00312669333957949,0.00655493114193018,-0.00140302165179929,-0.000801292255102837,-0.00129633067049006,-0.000188039059279888,-0.00467397723932095,0.000226266101080341,1.30358682151055e-05,-0.00118643063077339,-0.000446492921575725,0.00453123963983693,-0.00201895565305055,-0.000118638039063867,-0.00233912162391103,-8.81088911199868e-05,-0.000308096035102068,-0.000255009163399045,0.000201712050091452,0.00023280111815982,-0.000188039059279888,0.00759327780818086,0.000193318735852266,0.000121704988577775,-0.00111485110855902,0.00105819119782513,-0.000118638039063867,0.000675023047914003,-0.00233912162391103,-0.000585548169973471,-0.000188039059279888,0.00757911414001722,-0.000302161703274351,0.000193318735852266,-0.00059782855117696,-0.000544201701066171,-0.00173310922085257,-0.00164191024857274,-0.000499980770920949,-0.000188039059279888,0.00759327780818086,-0.00110253902744617,-3.84736073577585e-05,0.000675023047914003,-0.00233912162391103,-0.000433070729846108,-0.00294942478580129,0.000289443691025681,0.000454832547148065,0.000289443691025681,-0.000530537416834953,-0.000188039059279888,-0.00201895565305055,-0.000499980770920949,0.00063145513866214,-0.000433070729846108,-9.43924618734826e-06,0.000354169128004678,-0.00512589926213636,-8.93930847318813e-05
"15:72189952:T:A",-5.47512886823753e-05,-9.0395926374498e-05,3.97827161684461e-05,-0.00172192388384484,-1.81879893856873e-05,-0.000113406283193562,-8.30074343571852e-06,1.44279161595762e-06,1.92428818337476e-05,-4.32785142772119e-05,7.8618445868095e-05,1.44279161595762e-06,-0.00132136171895159,-0.00294775703578232,-5.47512886823753e-05,6.01745884418747e-05,-0.000345010126013179,-0.0014781155004906,0.000104450860767713,7.43367810702722e-05,0.000104229963889146,-0.000112447546737116,4.97417749878437e-05,3.97827161684461e-05,5.85795023777536e-06,8.40172650145021e-05,-0.000808895126183984,-0.00294775703578321,0.0458828743047661,-0.00185003124585759,2.38644907080143e-05,-6.62503700459283e-05,-9.0395926374498e-05,0.000131370856331969,4.14025560706577e-05,3.97827161684461e-05,7.35930696116327e-06,-0.00268229319037427,4.3038100094428e-05,-0.000112447546737116,-5.47512886823753e-05,-0.00239268479316301,-0.000808895126183984,4.20417723594468e-05,-1.26245267075831e-05,-6.13994730365164e-05,-0.0014781155004906,3.97827161684461e-05,0.000149849252091272,-0.00294775703578321,4.97417749878437e-05,1.92428818337476e-05,2.70220775657748e-05,0.00045017432192207,-0.000112447546737116,7.80529398021201e-05,6.71190306684721e-05,0.000104229963889146,-0.000693756590312233,-0.000808895126183984,3.97827161684461e-05,0.000120587320821208,-0.000108504588629543,4.97417749878437e-05,-2.88838463280428e-05,-0.0030666050298187,-4.7225525400485e-05,2.38644907080143e-05,-0.000274321482287121,3.97827161684461e-05,6.71190306684721e-05,-5.47512886823753e-05,-8.30074343571852e-06,-0.000258633969719035,8.77022363541258e-05,-0.00268229319037427,0.000142919155452503,2.38644907080143e-05,-0.000112447546737116,1.92428818337476e-05,0.000151189250311212,4.97417749878437e-05,-0.00107518947190943,-6.37945632364634e-05,3.97827161684461e-05,-0.00294775703578321,-4.97872455715864e-05,-3.15905477474843e-05,-0.000128016163700728,-0.000936063447334767,2.38644907080143e-05,-0.000693756590312233,-0.000112447546737116,0.000125877583504241,3.97827161684461e-05,-0.00314320423708914,6.18858843868253e-05,-4.97872455715864e-05,-0.0014781155004906,0.000106149378367171,-0.000111478187556635,-4.97872455715864e-05,9.52863567524886e-05,3.97827161684461e-05,-0.00294775703578321,-0.000102401007159081,5.85795023777536e-06,-0.000693756590312233,-0.000112447546737116,1.44279161595762e-06,-0.0010970425034742,-0.000808895126183984,-0.000114354569671349,-7.216129527432e-05,0.000104229963889146,3.97827161684461e-05,0.000142919155452503,9.52863567524886e-05,9.30782427266408e-05,1.44279161595762e-06,1.44279161595762e-06,-9.0395926374498e-05,8.40172650145021e-05,1.35188389309704e-05
"15:72190760:A:G",-0.000998078418765758,-0.00290600699643484,-6.28406075282584e-05,-0.00171200267041538,2.60659584485623e-05,-0.00104477597781205,8.59659936214285e-06,-2.59830893689639e-06,-2.9375926131614e-05,-4.45584013686329e-06,-0.000675210536355664,-2.59830893689639e-06,-0.000130826185776201,-0.000340086937950623,-0.000998078418765758,-0.000813663781580765,0.000152140108910181,-0.00411219559521392,-0.00150076063473037,0.000456698128155075,-0.000181649863547406,-0.00339430370715821,-0.00144989897527381,-6.28406075282584e-05,-1.0619253155042e-05,-0.00110707109996078,-0.00132527213586542,-0.000340086937950623,-0.00185003124585759,0.135973708165203,-0.00311823636593545,-1.04907631026663e-06,-0.00290600699643484,-0.0015951179404734,0.000453373925845213,-6.28406075282584e-05,-1.337091003073e-05,-0.000305357096950232,-6.92156404547006e-05,-0.00339430370715821,-0.000998078418765758,-0.00164530941508811,-0.00132527213586542,-0.00165119350999099,-0.0021873356930362,-0.00429642706329947,-0.00411219559521392,-6.28406075282584e-05,-0.00165131479653535,-0.000340086937950623,-8.25428689763541e-05,-2.9375926131614e-05,0.000264268122556643,-0.000390158654251849,-0.00339430370715821,-0.00345512707017903,-0.00128486074073564,-0.000181649863547406,0.000210725129608846,-0.00132527213586542,-6.28406075282584e-05,-0.00155189700005565,-0.00336420943812143,-8.25428689763541e-05,3.8025737352676e-05,-0.000381617005462687,-0.00227424581717894,-0.00311823636593545,-0.000688591051847709,-6.28406075282584e-05,-0.00128486074073564,-0.000998078418765758,8.59659936214285e-06,0.000102312631712564,-0.000150416658952324,-0.000305357096950232,-0.00305183556428812,-3.80573587781541e-05,-0.00339430370715821,-2.9375926131614e-05,-0.00166859707425804,-0.00144989897527381,-0.00164019635113455,-1.19767668733672e-05,-6.28406075282584e-05,-0.000340086937950623,6.6433901790397e-05,-0.00186140255351752,-0.0022090037620508,-0.000207052196948165,-0.00410932597302072,0.000210725129608846,-0.00339430370715821,-0.00157264494080067,-6.28406075282584e-05,-0.00033419931675116,-0.00100356352192144,-0.0025251721058801,-0.00411219559521392,-0.000186025338702933,-0.00307635838565989,-0.0025251721058801,-0.000634142602945253,-6.28406075282584e-05,-0.000340086937950623,-5.02624383358352e-06,-1.0619253155042e-05,0.000210725129608846,-0.00339430370715821,-2.59830893778457e-06,-0.00104220999811133,-0.00132527213586542,-0.00207975089302348,-0.00302892823605649,-0.000181649863547406,-6.28406075282584e-05,-0.00305183556428812,-0.000634142602945253,-0.000156747168796656,-2.59830893778457e-06,-2.59830893689639e-06,-0.00290600699643484,-0.00110707109996078,-2.47903099719338e-05
"15:72193250:A:G",2.82894795091693e-05,4.4880694913374e-05,-2.29167140259889e-05,-0.00157512165513385,9.75585167406479e-06,5.55646867175241e-05,3.68850979270974e-06,-8.99621857897159e-07,-1.08106461826907e-05,-0.00207389525051749,-4.71501843319899e-05,-8.99621857897159e-07,-4.71501843319899e-05,-0.000801292255102837,2.82894795091693e-05,-3.54461511440363e-05,5.93259539556357e-05,-7.57500616819229e-05,-0.00378403924214066,-0.00335511494440954,-6.46564101245417e-05,5.50250949880038e-05,-2.95775049687919e-05,-2.29167140259889e-05,-3.66819194308476e-06,-5.09988544594719e-05,3.65225144252079e-05,-0.000801292255102837,2.38644907080143e-05,-0.00311823636593545,0.0705178759198573,3.30993359325404e-05,4.4880694913374e-05,-0.00373998561343392,-0.00458446738767826,-2.29167140259889e-05,-4.61503013227116e-06,-0.000924632006112702,-2.50790646072474e-05,5.50250949880038e-05,2.82894795091693e-05,-0.00155920668586074,3.65225144252079e-05,-2.57502005602817e-05,6.35576771124136e-06,-0.00225736872433746,-7.57500616819229e-05,-2.29167140259889e-05,-0.00373909384081728,-0.000801292255102837,-0.00334850658500496,-1.08106461826907e-05,-1.58317910168293e-05,4.86042554683763e-05,5.50250949880038e-05,-4.79395513233172e-05,-4.02425884491464e-05,-6.46564101245417e-05,8.26320348901177e-05,3.65225144252079e-05,-2.29167140259889e-05,-0.00374726025800598,5.27965219960791e-05,-0.00334850658500496,1.46565699239432e-05,-0.000746110253362353,-0.00226791454425523,0.000339759052751631,0.000118457848793163,-2.29167140259889e-05,-4.02425884491464e-05,2.82894795091693e-05,3.68850979270974e-06,3.96997017375611e-05,-5.36519474527708e-05,-0.000924632006112702,-9.3665040316715e-05,-1.37843575265251e-05,5.50250949880038e-05,-1.08106461826907e-05,-0.00369919922795603,-2.95775049687919e-05,2.61194881687743e-05,-0.00219336239598267,-2.29167140259889e-05,-0.000801292255102837,2.53775089626984e-05,1.62856359535724e-05,-0.00185148387813427,-0.00100634738827576,-1.37843575265251e-05,8.26320348901177e-05,5.50250949880038e-05,-0.00374572677921226,-2.29167140259889e-05,-0.000727880038673412,-3.66216099534356e-05,2.53775089626984e-05,-7.57500616819229e-05,-6.60913370111871e-05,5.44786163114708e-05,2.53775089626984e-05,-0.00344813798429655,-2.29167140259889e-05,-0.000801292255102837,-9.98134032315079e-07,-3.66819194308476e-06,8.26320348901177e-05,5.50250949880038e-05,-8.99621857897159e-07,-0.00172145218213338,3.65225144252079e-05,5.60975201766567e-05,3.65225144252079e-05,-6.46564101245417e-05,-2.29167140259889e-05,-9.3665040316715e-05,-0.00344813798429655,-5.64414515453748e-05,-8.99621857897159e-07,-8.99621857897159e-07,4.4880694913374e-05,-5.09988544594719e-05,-8.52861492628421e-06
"15:72195229:T:C",-7.61923545375964e-05,-0.000125776394985344,5.55195148592702e-05,-0.00849664234266534,-2.53539296286576e-05,-0.000694053697944064,-1.21097285363803e-05,1.94265341679767e-06,-0.000462788819213245,-6.10296968286406e-05,-0.00110223013444255,1.94265341679767e-06,0.000110129679582904,-0.00125678555254627,-7.61923545375964e-05,8.41099807251666e-05,-0.00334191369059678,0.000169136109389179,-0.00169775721284537,0.000103569117394287,0.000146199214042575,-0.00256809113979006,-0.00471257314516915,5.55195148592702e-05,7.8914346266501e-06,0.000117582287402662,-0.000100436951161242,-0.00125678555254627,-6.62503700459283e-05,-1.04907631026663e-06,3.30993359325404e-05,0.119992633445127,-0.000125776394985344,-0.00175104588264929,5.77277468645221e-05,5.55195148592702e-05,-0.00257162082974371,-0.00141378694191552,5.99582824269973e-05,-0.00256809113979006,-7.61923545375964e-05,-0.00502717598546809,-0.000100436951161242,-0.00230571205222674,-1.79051367368288e-05,-0.000173671433460143,0.000169136109389179,5.55195148592702e-05,-0.00218115886481041,-0.00125678555254627,6.91101779715098e-05,-0.000462788819213245,3.73824184425331e-05,-0.00136895285765881,-0.00256809113979006,3.06956899187583e-05,9.36426957691694e-05,0.000146199214042575,-0.000245878623631235,-0.000100436951161242,5.55195148592702e-05,-0.00466425205551246,-0.00114313547583578,6.91101779715098e-05,-0.00305733244908168,-0.00116351606081011,-0.0031838040748875,3.30993359325404e-05,-0.000377007576323862,5.55195148592702e-05,9.36426957691694e-05,-7.61923545375964e-05,-1.21097285363803e-05,-0.00313514493628819,0.00012267543839517,-0.00141378694191552,9.43592851143649e-05,3.30993359325404e-05,-0.00256809113979006,-0.000462788819213245,-0.00180705198700615,-0.00471257314516915,-7.13019145148763e-05,-8.94679899081652e-05,5.55195148592702e-05,-0.00125678555254627,-0.00344164228673804,-0.0012960821289516,-0.00144383007106974,-0.00286062022935507,-0.00455022017941609,-0.000245878623631235,-0.00256809113979006,-0.00197777155898393,5.55195148592702e-05,-0.00118809468645154,-0.00310682330376277,-6.96363525518606e-05,0.000169136109389179,0.000148868682971148,-0.00305747377751686,-0.00344164228673804,0.000133174357434207,5.55195148592702e-05,-0.00125678555254627,-0.00260993446064361,7.8914346266501e-06,-0.000245878623631235,-0.00256809113979006,1.94265341590949e-06,-0.00145501040987472,-0.000100436951161242,-0.00191783009245761,-0.00436701766423031,0.000146199214042575,5.55195148592702e-05,9.43592851143649e-05,0.000133174357434207,0.00013071905854467,1.94265341590949e-06,1.94265341679767e-06,-0.000125776394985344,0.000117582287402662,1.82277611724402e-05
"15:72199545:T:C",-0.000115417719772637,0.00189805788820419,7.60358572629016e-05,0.000163291382691,-3.4453830054737e-05,-0.00158856707384558,-1.73973500690039e-05,2.52580801429758e-06,3.66393698119083e-05,-8.38193551322419e-05,0.000152236559798347,2.52580801429758e-06,0.000152236559798347,0.00035416912800379,-0.000115417719772637,0.000115686889498257,-0.000962942008997381,0.000236122969368147,0.000470152065671137,0.000141976202432836,-0.00226416686812403,-0.000208720883965618,9.41555802347338e-05,7.60358572629016e-05,1.02689345817808e-05,0.00016240097979292,-0.000495375759747674,0.000354169128004678,-9.0395926374498e-05,-0.00290600699643484,4.4880694913374e-05,-0.000125776394985344,0.0447709415571724,0.00049463634729463,7.89746329079577e-05,7.60358572629016e-05,-0.00140686378656874,0.000321905276511103,8.19451812885674e-05,-0.000208720883965618,-0.000115417719772637,-0.00136620263776965,-0.000495375759747674,7.75374708981147e-05,-0.00112618222864036,-0.000111637118147101,0.000236122969368147,7.60358572629016e-05,0.000527327966203472,0.000354169128004678,-0.00168069230525703,3.66393698119083e-05,-0.0029980236971614,-0.00100916828372721,-0.000208720883965618,0.00014892049911186,0.000128543682582638,-0.00226416686812403,-0.000463635006014762,-0.000495375759747674,7.60358572629016e-05,0.000478814202526934,-0.000202633510845374,-0.00168069230525703,-5.59500539685232e-05,0.000390539466951445,-0.000939957003705416,4.4880694913374e-05,-0.000490838811672667,7.60358572629016e-05,0.000128543682582638,-0.000115417719772637,-0.00118225887166368,-0.0009987428039544,-0.00247027684135048,0.000321905276511103,0.000280843570729772,4.4880694913374e-05,-0.000208720883965618,3.66393698119083e-05,0.000508778068928351,9.41555802347338e-05,-0.000744091101144484,-0.000121772190883718,7.60358572629016e-05,0.000354169128004678,-0.00422400789387467,-6.05392276789019e-05,-0.00115160132277659,-0.00083328181080411,4.48806949124858e-05,-0.000463635006014762,-0.000208720883965618,0.000487254963326578,7.60358572629016e-05,0.000349720897369288,0.000118849136176102,-0.00178865368170111,0.000236122969368147,-0.00232487921182312,-0.000207225337463868,-0.000829044841242244,-0.00260215763740046,7.60358572629016e-05,0.000354169128004678,-0.00120886913949292,1.02689345817808e-05,-0.000463635006014762,-0.000208720883965618,2.52580801429758e-06,0.000228168948004814,-0.000495375759747674,-0.000211661169072563,-0.00515906519254639,-0.00226416686812403,7.60358572629016e-05,0.000280843570729772,-0.00260215763740046,0.000181653234250234,2.52580801429758e-06,2.52580801429758e-06,0.00189805788820419,0.00016240097979292,2.3754327688863e-05
"15:72203517:C:A",-0.000223480867158621,0.00049463634729463,-9.77970702749076e-05,0.00171357761849045,-6.45663759168968e-05,-0.00131658163801873,-0.00100897771936292,3.78000534428935e-06,5.75569207335036e-05,-0.00129900617203571,-0.000280721092637215,-2.56308653376891e-05,8.41721730413525e-05,-0.00040912030289153,-0.000223480867158621,-0.0045371489632684,-0.00126183145217151,0.00166137639904562,0.00286176030820862,-0.000623315398945223,0.0011619689540483,-0.00147400406679576,-0.000340733618371836,-9.77970702749076e-05,-0.00544033297072577,-0.000702864055520003,-0.00070245228228405,-0.000409120302890642,0.000131370856331969,-0.0015951179404734,-0.00373998561343392,-0.00175104588264929,0.00049463634729463,0.0980990037873606,-0.00285994354453045,-9.77970702749076e-05,-0.00205802677382749,-0.000841896820660715,-0.000227396287581172,-0.00147400406679665,-0.000223480867158621,-0.00258040274665294,-0.00070245228228405,-0.000476497340858195,-0.002189334250426,0.000376240209336576,0.00166137639904562,-9.77970702749076e-05,0.00329139445621607,-0.000409120302890642,-0.00115541421579035,5.75569207335036e-05,-0.0060611645084574,0.000173811876262864,-0.00147400406679665,-0.00648242340132121,-0.00127473466894568,0.0011619689540483,-0.00528854072304163,-0.00070245228228405,-9.77970702749076e-05,0.00466984544690607,-0.000103672676745603,-0.00115541421579035,6.7447439481505e-05,-0.00155101737863461,-0.00087100084986691,-0.00373998561343392,0.00120772235192934,-9.77970702749076e-05,-0.00127473466894568,-0.000223480867158621,-0.00395546931751412,-0.0010211976826886,0.000625152797488759,-0.00339078980368424,-0.00171946319082439,-0.000279675557917969,-0.00147400406679665,5.75569207335036e-05,0.0045042275306848,-0.000340733618371836,-0.00116637452226964,-0.00152423602018192,-9.77970702749076e-05,-0.000409120302890642,-0.00121450359278263,-0.00577569992717475,-0.00100348048653753,0.000191738477740344,-0.00453957611381561,-0.00528854072304163,-0.00147400406679665,0.00240116145119185,-9.77970702749076e-05,-0.000199660079958974,-0.00117022165241654,0.000112841966661392,0.00166137639904562,0.00048472756358553,-0.00128916630210618,-0.00121450359278263,-0.00140991672712154,-9.77970702749076e-05,-0.000409120302890642,-0.000235453675502484,-0.00544033297072577,-0.00528854072304163,-0.00147400406679665,3.78000534428935e-06,0.0012695145061179,-0.00070245228228405,0.000360570569413632,-0.00117497591148563,0.0011619689540483,-9.77970702749076e-05,-0.00171946319082439,-0.00140991672712154,-0.000203070039767717,3.78000534428935e-06,-2.56308653376891e-05,0.000494636347295518,-0.000702864055520003,-0.0003099905352002
"15:72203855:C:T",4.95506872892904e-05,7.89746329079577e-05,-3.95673837489952e-05,-9.20431201674177e-05,1.69811899768391e-05,-0.00257455513128857,6.03825401057634e-06,-1.61023537437188e-06,-1.87240526248189e-05,-0.00158345136414173,-8.07357835537204e-05,-1.61023537437188e-06,-8.07357835537204e-05,-0.000198847965929616,4.95506872892904e-05,-0.000260840080021474,0.00010462936856559,-0.000128614075944888,-0.00289122209903248,0.000732108956587929,-0.000110249041744837,9.73602145926122e-05,-0.000902711332603445,-3.95673837489952e-05,-6.55901922375079e-06,-8.73560508880544e-05,6.40990286200349e-05,-0.000198847965929616,4.14025560706577e-05,0.000453373925845213,-0.00458446738767826,5.77277468645221e-05,7.89746329079577e-05,-0.00285994354453045,0.0411397365975894,-3.95673837489952e-05,-8.24917978103912e-06,-0.000179792289735303,-4.33595575852763e-05,9.73602145926122e-05,4.95506872892904e-05,-4.30325108569107e-05,6.40990286200349e-05,-4.50738637951531e-05,1.08426654872318e-05,-0.0014969879652611,-0.000128614075944888,-3.95673837489952e-05,-0.00286861793679272,-0.000198847965929616,-5.12308553899388e-05,-1.87240526248189e-05,-2.76107339098886e-05,-0.00328167173953098,9.73602145926122e-05,-8.25797053831678e-05,-6.92793474366127e-05,-0.000110249041744837,0.000148109973142851,6.40990286200349e-05,-3.95673837489952e-05,-0.00286147924773861,9.31039507889864e-05,-5.12308553899388e-05,2.52474957518345e-05,-0.000221172709080619,4.14025560706577e-05,-0.00458446738767826,0.000216273853026472,-3.95673837489952e-05,-6.92793474366127e-05,4.95506872892904e-05,6.03825401057634e-06,6.92297481590387e-05,-9.19105177361601e-05,-0.000179792289735303,-0.000158714273900351,-2.39908817487589e-05,9.73602145926122e-05,-1.87240526248189e-05,-0.00282872332393147,-0.000902711332603445,4.55512091175336e-05,-0.00169506982191692,-3.95673837489952e-05,-0.000198847965929616,4.41853060593189e-05,2.8213105354169e-05,1.26138467466674e-05,1.99211151068468e-05,-2.3990881749647e-05,0.000148109973142851,9.73602145926122e-05,-0.00286278492341019,-3.95673837489952e-05,-0.000195771385434362,-0.000449436781027934,4.41853060593189e-05,-0.000128614075944888,-0.000112689785980891,9.63157149440619e-05,4.41853060593189e-05,0.000849012502459168,-3.95673837489952e-05,-0.000198847965929616,-2.380392664314e-06,-6.55901922375079e-06,0.000148109973142851,9.73602145926122e-05,-1.61023537437188e-06,-0.00287834122220776,6.40990286200349e-05,9.94114927843626e-05,6.40990286200349e-05,-0.000110249041744837,-3.95673837489952e-05,-0.000158714273900351,0.000849012502459168,-9.62352313971238e-05,-1.61023537437188e-06,-1.61023537437188e-06,7.89746329079577e-05,-8.73560508880544e-05,-1.52228500454044e-05
"15:72203987:A:G",4.76053942000121e-05,7.60358572629016e-05,0.0017186194818315,-8.75035327032592e-05,1.62784162611729e-05,9.48438719969857e-05,5.81894965989704e-06,-1.53685808168547e-06,-1.7903192986779e-05,-0.00126742300393623,-7.68870400706945e-05,-1.53685808168547e-06,0.0017186194818315,-0.000188039059280776,4.76053942000121e-05,-5.81201300686729e-05,0.000100936710622612,-0.000122117187721926,-0.000117332899561617,-7.42744678765561e-05,-0.000104783806638586,9.38460593804535e-05,-4.88462246766019e-05,0.0017186194818315,-6.25781156138316e-06,-8.31405758638937e-05,6.16486606714872e-05,-0.000188039059279888,3.97827161684461e-05,-6.28406075282584e-05,-2.29167140259889e-05,5.55195148592702e-05,7.60358572629016e-05,-9.77970702749076e-05,-3.95673837489952e-05,-0.0116399550446999,-7.8693623493109e-06,-0.00017019077367042,-4.13785014012902e-05,9.38460593804535e-05,4.76053942000121e-05,-4.10107154102946e-05,6.16486606714872e-05,-4.29475481515951e-05,1.04089365695614e-05,0.000174321284003298,-0.000122117187721926,0.0017186194818315,-3.69639236401653e-05,-0.000188039059279888,-4.88462246766019e-05,-1.7903192986779e-05,-2.63602453181022e-05,8.2024238095002e-05,9.38460593804535e-05,-0.000798893963585456,-6.59982828938865e-05,-0.000104783806638586,0.000143267630224209,6.16486606714872e-05,0.0017186194818315,-9.9721807530706e-05,8.97321561748043e-05,-4.88462246766019e-05,2.42431183865577e-05,-0.000208894346922506,3.97827161684461e-05,-2.29167140259889e-05,0.000210254295379464,0.0017186194818315,-6.59982828938865e-05,4.76053942000121e-05,5.81894965989704e-06,6.6645803646459e-05,-8.74395362115976e-05,-0.00017019077367042,-0.00063041004565445,-2.29167140259889e-05,9.38460593804535e-05,-1.7903192986779e-05,-7.90377974411172e-05,-4.88462246766019e-05,4.37643684652045e-05,-0.00137965209997581,0.0017186194818315,-0.000188039059279888,4.24531527150052e-05,2.70831327391363e-05,1.21592952586624e-05,0.000567814256385191,-2.29167140259889e-05,0.000143267630224209,9.38460593804535e-05,-0.000144125557915764,0.0017186194818315,-0.000185169581412126,-6.00539304391745e-05,4.24531527150052e-05,-0.000122117187721926,-0.000107081768553563,9.28362034464669e-05,4.24531527150052e-05,-9.63672176679253e-05,0.0017186194818315,-0.000188039059279888,-2.21586866810952e-06,-6.25781156138316e-06,0.000143267630224209,9.38460593804535e-05,-1.53685808168547e-06,-0.000999017708794625,6.16486606714872e-05,9.58298553621617e-05,6.16486606714872e-05,-0.000104783806638586,0.0017186194818315,-0.00063041004565445,-9.63672176679253e-05,0.0010690184043991,-1.53685808168547e-06,-1.53685808168547e-06,7.60358572629016e-05,-8.31405758638937e-05,-1.45144065939462e-05
"15:72207204:C:T",8.55480877071102e-06,-0.00140686378656874,-7.8693623493109e-06,-1.93922403983748e-05,3.10528250935249e-06,1.53833604183973e-05,-0.00227620940226636,-2.85601567284743e-07,-3.61447029373352e-06,6.7121551516891e-06,-1.70365526503957e-05,-2.85601567284743e-07,-1.70365526503957e-05,-4.83981896781671e-05,8.55480877071102e-06,-1.25011515796913e-05,-0.000778536208867031,-0.00380822857236929,-0.00211639963169752,-1.62239850123314e-05,-2.41177010247284e-05,1.5269426114628e-05,-1.02506993497897e-05,-7.8693623493109e-06,-1.17236798580223e-06,-0.00130522538172695,1.07824854520544e-05,-4.83981896781671e-05,7.35930696116327e-06,-1.337091003073e-05,-4.61503013227116e-06,-0.00257162082974371,-0.00140686378656874,-0.00205802677382749,-8.24917978103912e-06,-7.8693623493109e-06,0.0587354529743722,-4.28021551348579e-05,-8.63561512787214e-06,1.5269426114628e-05,8.55480877071102e-06,-8.35808336940858e-06,1.07824854520544e-05,-0.00190849497140899,-0.00204485737025717,-0.000320079603985945,-0.00380822857236929,-7.8693623493109e-06,-0.0020474390182299,-4.83981896781671e-05,-1.02506993497897e-05,-3.61447029373352e-06,-5.31148930882352e-06,1.38707253087844e-05,1.5269426114628e-05,-0.00243512610042185,-0.0015084346607912,-2.41177010247284e-05,2.05644437931696e-05,1.07824854520544e-05,-7.8693623493109e-06,-0.00207099510111508,-0.0015165888475801,-1.02506993497897e-05,4.65333963894921e-06,-5.51481784594188e-05,7.35930696116327e-06,-4.61503013227116e-06,2.45190861489775e-05,-7.8693623493109e-06,-0.0015084346607912,8.55480877071102e-06,1.25468695788555e-06,-0.000520929976760343,-1.95826523112785e-05,-4.28021551348579e-05,-0.00268633623698378,-4.61503013227116e-06,1.5269426114628e-05,-3.61447029373352e-06,-0.00200630459038909,-1.02506993497897e-05,7.97275796582397e-06,9.54665346952766e-06,-7.8693623493109e-06,-4.83981896781671e-05,7.77187264944246e-06,5.12498737847977e-06,2.58858786494898e-06,-0.000911157896118731,-0.0012953794315429,2.05644437931696e-05,1.5269426114628e-05,-0.00206673378877475,-7.8693623493109e-06,-4.75162766369053e-05,-1.2938289682296e-05,7.77187264944246e-06,-0.00380822857236929,-2.47075221366799e-05,1.51534617849336e-05,7.77187264944246e-06,-2.17898335961308e-05,-7.8693623493109e-06,-4.83981896781671e-05,-1.21603371692203e-05,-1.17236798580223e-06,2.05644437931696e-05,1.5269426114628e-05,-2.85601567284743e-07,-0.000593529697630935,1.07824854520544e-05,1.54953118087775e-05,1.07824854520544e-05,-2.41177010247284e-05,-7.8693623493109e-06,-0.00268633623698378,-2.17898335961308e-05,-2.07896006285679e-05,-2.85601567284743e-07,-2.85601567284743e-07,-0.00140686378656874,-0.00130522538172695,-0.00204598596478522
"15:72209710:C:T",-0.00179739843974058,0.000321905276511103,-0.00017019077367042,-0.00315372146009452,7.08888050517942e-05,0.000406308023280566,1.34471515789159e-05,-0.000293127023279993,-7.97939076671028e-05,0.000138100005262487,-0.000271561875460513,-8.34600309485012e-06,-0.000347466595684409,0.00453123963983604,-0.00179739843974058,-0.000263035246430121,-0.00134601756774888,-0.000675770157698707,-0.000932778421551816,-0.000349595997391816,-0.000480393064636431,-0.00251537175865479,-0.000229698182740101,-0.00017019077367042,-3.40232034607979e-05,-0.00480595642866977,0.00026292959441232,0.00453123963983693,-0.00268229319037427,-0.000305357096950232,-0.000924632006112702,-0.00141378694191552,0.000321905276511103,-0.000841896820660715,-0.000179792289735303,-0.00017019077367042,-4.28021551348579e-05,0.0722018901205486,-0.00069293747228194,-0.00251537175865479,-0.00179739843974058,-0.00115692348064478,0.00026292959441232,-0.00746560878294655,3.86934002616357e-05,0.000316547067271244,-0.000675770157698707,-0.00017019077367042,-0.00055775820253956,0.00453123963983693,-0.000975463258664711,-7.97939076671028e-05,-0.000125475734846781,-0.00564866485326743,-0.00251537175865479,-0.0024283690288458,-0.0043613010402801,-0.000480393064636431,0.000611219480932235,0.00026292959441232,-0.00017019077367042,-0.000856069785863056,-0.00412918291421516,-0.000975463258664711,-0.00285477795429578,0.00350120795703823,-0.00155323872253987,-0.000924632006112702,-0.00111129123020071,-0.00017019077367042,-0.0043613010402801,-0.00179739843974058,1.34471515789159e-05,-0.00134650953417292,-0.000403690407090984,0.00146195483589562,-0.00222219275961777,-0.00010685319633108,-0.00251537175865479,-7.97939076671028e-05,-0.000757924397880139,-0.000229698182740101,0.000183768783373672,0.000213353865430754,-0.00017019077367042,0.00453123963983693,0.00017640170475719,0.000111292226255166,-0.00124974921294463,0.000285037105864916,-0.000106853196331969,0.000611219480932235,-0.00251537175865479,-0.00101361447293336,-0.00017019077367042,0.00597459169246495,-0.000273366013875176,0.00017640170475719,-0.000675770157698707,-0.000492612057431785,-0.00178209153593389,-0.00179410914867617,-0.000451445125788652,-0.00017019077367042,0.00453123963983693,-0.00123186393470043,-3.40232034607979e-05,0.000611219480932235,-0.00251537175865479,-0.000293127023279993,-0.00076981834968759,0.00026292959441232,-0.00152425512639542,-0.00208893941993527,-0.000480393064636431,-0.00017019077367042,-0.00222219275961777,-0.000451445125788652,0.000538207074531449,-0.000293127023279993,-8.34600309485012e-06,0.000321905276511103,-0.00480595642866977,-7.90751741241991e-05
"15:72215349:C:T",5.1517453566241e-05,8.19451812885674e-05,-4.13785014012902e-05,-0.00130389851136847,1.7691803494202e-05,0.00010197959699898,6.256899316881e-06,-1.6848761470456e-06,-1.95545265011532e-05,3.85524022314954e-05,-0.000274770522361578,-1.6848761470456e-06,-8.46312582094555e-05,-0.000578064346223428,5.1517453566241e-05,-6.38300164697014e-05,0.000108360719652367,-0.000135192316892407,-0.000225544130710631,-8.18397587085684e-05,-0.000633943992744967,0.000100913103382894,-5.36475429102623e-05,-4.13785014012902e-05,-6.86545936190441e-06,-9.16247650355473e-05,6.65760424416462e-05,-0.000578064346223428,4.3038100094428e-05,-6.92156404547006e-05,-2.50790646072474e-05,5.99582824269973e-05,8.19451812885674e-05,-0.000227396287581172,-4.33595575852763e-05,-4.13785014012902e-05,-8.63561512787214e-06,-0.00069293747228194,0.0287097351682988,0.000100913103382894,5.1517453566241e-05,-4.50854492068942e-05,6.65760424416462e-05,-4.72332739525072e-05,-0.00304164006871854,-0.00201208357827554,-0.000135192316892407,-4.13785014012902e-05,-0.000245411114186744,-0.000578064346223428,-0.00106606592060832,-1.95545265011532e-05,-2.88783458888275e-05,8.82478456647462e-05,0.000100913103382894,-0.00128488525692028,-7.26028627973108e-05,-0.000633943992744967,0.000153006543259337,6.65760424416462e-05,-4.13785014012902e-05,-0.000219187579721059,-0.00418641653844087,-0.00106606592060832,2.62607718592989e-05,-0.000532741610417276,4.3038100094428e-05,-2.50790646072474e-05,0.000222361735016996,-4.13785014012902e-05,-7.26028627973108e-05,5.1517453566241e-05,-0.00159535839382574,7.18389438496558e-05,-0.00048733605104978,-0.00069293747228194,-0.00112463002603214,-2.50790646072474e-05,0.000100913103382894,-1.95545265011532e-05,-0.000224727104096267,-5.36475429102623e-05,4.73567397545338e-05,5.71918669658444e-05,-4.13785014012902e-05,-0.000578064346223428,4.59351775035088e-05,2.93542092038024e-05,1.3067217428997e-05,-0.00140485230788556,-2.50790646072474e-05,0.000153006543259337,0.000100913103382894,-0.000224188435105965,-4.13785014012902e-05,-0.000503302453060961,-6.59816364070309e-05,4.59351775035088e-05,-0.000135192316892407,-0.000573315717847578,9.98333390933581e-05,4.59351775035088e-05,-0.000106455754792734,-4.13785014012902e-05,-0.000578064346223428,-2.55256731485076e-06,-6.86545936190441e-06,0.000153006543259337,0.000100913103382894,-1.6848761470456e-06,-0.00044047416582238,6.65760424416462e-05,0.000103033062575975,6.65760424416462e-05,-0.000633943992744967,-4.13785014012902e-05,-0.00112463002603214,-0.000106455754792734,-0.000100949919147553,-1.6848761470456e-06,-1.6848761470456e-06,8.19451812885674e-05,-9.16247650355473e-05,-1.59437907267801e-05
"15:72216414:T:A",-0.000126942113087836,-0.000208720883965618,9.38460593804535e-05,-0.0062733134080748,-4.25512697175279e-05,-0.000179133603525727,-2.24899075664808e-05,2.98715306534802e-06,4.52217622877171e-05,-0.000104817993664241,-0.00350399838581517,2.98715306534802e-06,0.000188399130105488,-0.00233912162391103,-0.000126942113087836,0.000142920447818717,-0.00028895064701473,0.000292864668060666,-0.00136000745293874,0.000174547000646896,0.000251255508714188,0.00315384176287647,-0.00340306308884575,9.38460593804535e-05,1.2147698430276e-05,0.00020067805460311,-0.000167105192442563,-0.00233912162391103,-0.000112447546737116,-0.00339430370715821,5.50250949880038e-05,-0.00256809113979006,-0.000208720883965618,-0.00147400406679665,9.73602145926122e-05,9.38460593804535e-05,1.5269426114628e-05,-0.00251537175865479,0.000100913103382894,0.085262038960388,-0.000126942113087836,-0.00802478630295589,-0.000167105192442563,9.39262891703763e-05,-3.12798770645273e-05,-0.00184670271841458,0.000292864668060666,9.38460593804535e-05,-0.00152775623661494,-0.00233912162391103,0.000115525061658239,4.52217622877171e-05,6.17429564631067e-05,-0.000847128133805164,0.00315384176287647,-0.00108046115084015,0.000158379788958385,0.000251255508714188,-0.000398643927988829,-0.000167105192442563,9.38460593804535e-05,-0.00147441737573217,-0.000625466897042237,0.000115525061658239,-6.99030916706533e-05,-0.00222412559836105,-0.00450097274890382,5.50250949880038e-05,-0.000599079905621025,9.38460593804535e-05,0.000158379788958385,-0.000126942113087836,-2.24899075664808e-05,-0.000192403460237855,0.000209094003611021,-0.00251537175865479,-0.00114690546842411,5.50250949880038e-05,0.00315384176287647,4.52217622877171e-05,-0.00159307024834376,-0.00340306308884575,-0.000119817927466848,-0.00015144846127324,9.38460593804535e-05,-0.00233912162391103,-0.00476012468101583,-0.000710513533650037,-0.00882340625195965,-0.00225948394399822,5.50250949871156e-05,-0.000398643927988829,0.00315384176287647,-0.00143622651203934,9.38460593804535e-05,-0.00227271338809665,-0.00242961051761093,-0.000117389111533583,0.000292864668060666,0.000255743563565503,0.00266550362479823,-0.00476012468101583,0.000226506362435153,9.38460593804535e-05,-0.00233912162391103,-7.15420752417373e-06,1.2147698430276e-05,-0.000398643927988829,0.00315384176287647,2.98715306534802e-06,-0.00068348683919961,-0.000167105192442563,-0.00261386742038017,-0.00570402916324841,0.000251255508714188,9.38460593804535e-05,-0.00114690546842411,0.000226506362435153,0.000225344845450337,2.98715306534802e-06,2.98715306534802e-06,-0.000208720883965618,0.00020067805460311,2.81129624450926e-05
"15:72218036:G:A",0.00237796899291975,-0.000115417719772637,4.76053942000121e-05,0.000104261700737851,0.0011165090681704,-0.000127964927813196,-9.93846523655861e-06,1.6736140322493e-06,2.28334189147361e-05,-5.03431803577925e-05,9.57921269320039e-05,1.6736140322493e-06,9.57921269320039e-05,0.000226266101080341,0.00237796899291975,7.26646350033278e-05,-0.00014051254619396,0.000149609199342926,-0.000169349994582291,-0.00121303159333142,0.000128497933474137,-0.000126942113087836,5.9606514962951e-05,4.76053942000121e-05,6.80587809753774e-06,0.000102536539392517,-8.26835940772597e-05,0.000226266101080341,-5.47512886823753e-05,-0.000998078418765758,2.82894795091693e-05,-7.61923545375964e-05,-0.000115417719772637,-0.000223480867158621,4.95506872892904e-05,4.76053942000121e-05,8.55480877071102e-06,-0.00179739843974058,5.1517453566241e-05,-0.000126942113087836,-0.000740464235443383,4.78571939739325e-05,-8.26835940772597e-05,4.99404072789034e-05,-1.49031897143104e-05,-0.000258836432920795,0.000149609199342926,4.76053942000121e-05,-0.000221221577809239,0.000226266101080341,5.9606514962951e-05,2.28334189147361e-05,3.2028334612022e-05,-0.000473918195981859,-0.000126942113087836,9.47096732408781e-05,8.11857077316347e-05,0.000128497933474137,-0.000196440132021358,-8.26835940772597e-05,4.76053942000121e-05,-0.000221221577809239,-0.000122730931866322,5.9606514962951e-05,-3.37811134523136e-05,0.00025012028142779,-5.47512886823753e-05,2.82894795091693e-05,0.000154529395844705,4.76053942000121e-05,8.11857077316347e-05,0.00237796899291975,-9.93846523655861e-06,-9.31130912880107e-05,0.000107159717872563,0.000205316473675943,0.000179492957659733,2.82894795091693e-05,-0.000126942113087836,2.28334189147361e-05,-0.000278594773835295,5.9606514962951e-05,-5.90103002169329e-05,-7.34892256568642e-05,4.76053942000121e-05,0.000226266101080341,-5.76067266058189e-05,-3.68408533502063e-05,-2.08151309468718e-05,-0.00112022525173394,2.82894795091693e-05,-0.000196440132021358,-0.000126942113087836,-0.000221221577810127,4.76053942000121e-05,0.000223269578495611,7.47596271972739e-05,-0.000331318334062303,0.000149609199342926,0.000130956763216616,-0.000125907513356616,-5.76067266058189e-05,-0.00126530201505037,4.76053942000121e-05,0.000226266101080341,-1.27748491074442e-06,6.80587809753774e-06,-0.000196440132021358,-0.000126942113087836,1.6736140322493e-06,-0.000195557739255392,-8.26835940772597e-05,0.000386667480690939,1.78377301720545e-05,0.000128497933474137,4.76053942000121e-05,0.000179492957659733,-0.00126530201505037,0.000114305776265589,1.6736140322493e-06,1.6736140322493e-06,-0.000115417719772637,0.000102536539392517,1.57501187345588e-05
"15:72223185:T:C",4.78571939739325e-05,-0.00136620263776965,-4.10107154102946e-05,-0.00571112245608241,1.68442324088858e-05,9.10366998434498e-05,6.04484786848047e-06,-0.00367776746927184,-1.91007409684474e-05,-0.00404214338379205,-8.62125035956396e-05,-1.62182078522477e-06,-8.62125035956396e-05,-0.00104554077860008,4.78571939739325e-05,-6.41880789666871e-05,9.6436729895899e-05,-0.000979807178144831,-0.00268022554057801,-8.33077351405365e-05,-0.0011411230097691,-0.00802478630295589,-5.36226944269913e-05,-4.10107154102946e-05,-6.63558617119975e-06,-9.37690117881473e-05,-0.00126618794637157,-0.00104554077860008,-0.00239268479316301,-0.00164530941508811,-0.00155920668586074,-0.00502717598546809,-0.00136620263776965,-0.00258040274665294,-4.30325108569107e-05,-4.10107154102946e-05,-8.35808336940858e-06,-0.00115692348064478,-4.50854492068942e-05,-0.00802478630295589,4.78571939739325e-05,0.188294447457046,-0.00126618794637157,-4.70403190204749e-05,1.08134557610384e-05,-0.00567929396202338,-0.000979807178144831,-4.10107154102946e-05,-0.00257826168344177,-0.00104554077860008,-0.0015181736849339,-1.91007409684474e-05,-2.83866500483398e-05,-0.00227236193053759,-0.00802478630295589,-8.84837566621499e-05,-7.34452575770206e-05,-0.0011411230097691,-0.00370269823140923,-0.00126618794637157,-4.10107154102946e-05,-0.00260060577775612,8.66402621806373e-05,-0.0015181736849339,2.49014763866739e-05,-0.00100485611279666,-0.00252701451986503,-0.00155920668586074,0.000177046450565044,-4.10107154102946e-05,-7.34452575770206e-05,4.78571939739325e-05,-0.00212746227551808,6.58803270274788e-05,-0.00129269981879876,-0.00115692348064478,-0.00158530827643855,-0.00301098019793589,-0.00802478630295589,-1.91007409684474e-05,-0.00249098130245251,-5.36226944269913e-05,-0.00157085122459755,-0.00380981659732527,-4.10107154102946e-05,-0.00104554077860008,4.28980561073544e-05,-0.00178260490922355,-0.00540528015189157,-0.000356409907500854,-2.45873045505718e-05,-0.00370269823140923,-0.00802478630295589,-0.00259646688957549,-4.10107154102946e-05,-0.00022531991294894,-6.64485424977102e-05,-0.00165950039591767,-0.000979807178144831,-0.00120797668835149,-0.0119988286755,-0.00185591479497216,-0.000110012683688154,-4.10107154102946e-05,-0.00104554077860008,-2.41356891095279e-06,-6.63558617119975e-06,-0.00370269823140923,-0.00802478630295589,-0.00367776746927184,-0.000196965525749881,-0.00126618794637157,-0.00159083042828723,-0.000562150866903366,-0.0011411230097691,-4.10107154102946e-05,-0.00158530827643855,-0.000110012683688154,-0.000103826384496131,-0.00367776746927184,-1.62182078522477e-06,-0.00136620263776965,-9.37690117881473e-05,-1.55196924191969e-05
"15:72223686:A:T",-8.26835940772597e-05,-0.000495375759747674,6.16486606714872e-05,0.000133625495899459,-2.77595479065695e-05,-0.000168373623409934,-1.34850293571631e-05,2.10994640070794e-06,2.9645908089293e-05,-6.66257397474723e-05,0.000123669575220475,2.10994640070794e-06,0.000123669575220475,0.000289443691025681,-8.26835940772597e-05,9.39211698316456e-05,-0.000803499230895177,0.000192357042704039,-0.000715323907852117,-0.00153575450094934,0.000165339782864038,-0.000167105192442563,7.6759412099392e-05,6.16486606714872e-05,8.57867336545581e-06,0.000132143254011119,0.0019018056173028,0.000289443691025681,-0.000808895126183984,-0.00132527213586542,3.65225144252079e-05,-0.000100436951161242,-0.000495375759747674,-0.00070245228228405,6.40990286200349e-05,6.16486606714872e-05,1.07824854520544e-05,0.00026292959441232,6.65760424416462e-05,-0.000167105192442563,-8.26835940772597e-05,-0.00126618794637157,0.0338917879073311,6.37815267658937e-05,-0.00100780240041498,-0.00190944678663918,0.000192357042704039,6.16486606714872e-05,-0.000678201216529395,0.000289443691025681,-0.00329681925113778,2.9645908089293e-05,-0.00155240034675241,-0.000858072166798785,-0.000167105192442563,0.000121634504286483,0.000104639679125995,0.000165339782864038,-0.000259602470688236,0.0019018056173028,6.16486606714872e-05,-0.000714053176320562,-0.000161883082406611,-0.00329681925113778,-4.45824735271216e-05,0.000319466849300731,-0.000808895126183984,3.65225144252079e-05,-0.000390711385543696,6.16486606714872e-05,0.000104639679125995,-8.26835940772597e-05,-0.00106519518753778,-0.000854908116385111,-0.00187824865222552,0.00026292959441232,0.000229705451023854,-0.00340486815314378,-0.000167105192442563,2.9645908089293e-05,-0.000697150446494099,7.6759412099392e-05,-0.00116687541992988,-9.70516198144367e-05,6.16486606714872e-05,0.000289443691025681,-7.57477469761625e-05,-4.84325002112485e-05,-0.00103062505112028,-0.000361841922891237,3.65225144243198e-05,-0.000259602470688236,-0.000167105192442563,-0.000707689145299284,6.16486606714872e-05,0.000285719714962163,9.65571743458682e-05,-0.000697235547757913,0.000192357042704039,-0.00201102129741582,-0.000165822178617603,-0.000697235547757913,-0.00158064656090318,6.16486606714872e-05,0.000289443691025681,-0.00109409746041944,8.57867336545581e-06,-0.000259602470688236,-0.000167105192442563,2.10994640070794e-06,-0.000897863363535478,0.0019018056173028,-0.000169627718624277,-0.000108568085177119,0.000165339782864038,6.16486606714872e-05,0.000229705451023854,-0.00158064656090318,0.000147534334967503,2.10994640070794e-06,2.10994640070794e-06,-0.000495375759747674,0.000132143254011119,1.98462880653949e-05
"15:72223702:A:G",4.99404072789034e-05,7.75374708981147e-05,-4.29475481515951e-05,-0.00511006451558238,1.75993334954327e-05,-0.000902394337397361,6.27756011084557e-06,-1.70138207700177e-06,0.000171153490528653,-7.59577200648565e-05,-0.0049476050877848,-1.70138207700177e-06,-9.0396563104278e-05,-0.00811294833052756,4.99404072789034e-05,-6.72674309631915e-05,-0.00238438765982085,-0.000149035883058701,-0.000436040308790631,-8.74118964677706e-05,-0.00114941836863913,9.39262891703763e-05,-5.62169244116006e-05,-4.29475481515951e-05,-6.96277753853281e-06,-0.000208346590786057,6.37815267658937e-05,-0.00811294833052667,4.20417723594468e-05,-0.00165119350999099,-2.57502005602817e-05,-0.00230571205222674,7.75374708981147e-05,-0.000476497340858195,-4.50738637951531e-05,-4.29475481515951e-05,-0.00190849497140899,-0.00746560878294655,-4.72332739525072e-05,9.39262891703763e-05,4.99404072789034e-05,-4.70403190204749e-05,6.37815267658937e-05,0.157793538308587,1.12784118542208e-05,-0.00459919529857533,-0.000149035883058701,-4.29475481515951e-05,-0.00182724534974188,-0.00811294833052667,-0.00326311047766481,0.000171153490528653,-0.0016379857430584,-3.06618980872031e-07,9.39262891703763e-05,-0.00252486450663003,8.79704319887153e-05,-0.00114941836863913,-0.00370076546791953,6.37815267658937e-05,-4.29475481515951e-05,-0.00112773146567946,-0.00319689911940291,-0.00326311047766481,-0.000984022542867891,-0.00842115368179286,4.20417723594468e-05,-2.57502005602817e-05,-0.000789963806903771,-4.29475481515951e-05,8.79704319887153e-05,4.99404072789034e-05,6.27756011084557e-06,-0.0022691948596254,-0.00129996100628027,-0.00746560878294655,-0.00285448914893571,-2.57502005602817e-05,9.39262891703763e-05,0.000171153490528653,-0.000506974976429042,-5.62169244116006e-05,4.60810752143104e-05,-0.000132853199565908,-4.29475481515951e-05,-0.00811294833052667,4.47552239171145e-05,2.89631670700174e-05,1.306303012516e-05,2.36653391758601e-05,-0.00109658346063135,-0.00370076546791953,9.39262891703763e-05,-0.00188939945693178,-4.29475481515951e-05,-0.00857516935123837,-6.96476753114794e-05,4.47552239171145e-05,-0.000149035883058701,-0.00121641659779392,9.30249044692744e-05,4.47552239171145e-05,-0.00145598912245148,-4.29475481515951e-05,-0.00811294833052667,-0.00192655159594501,-6.96277753853281e-06,-0.00370076546791953,9.39262891703763e-05,-1.70138207700177e-06,-0.000210701267542746,6.37815267658937e-05,-0.00496614885954294,-0.0035225697040655,-0.00114941836863913,-4.29475481515951e-05,-0.00285448914893571,-0.00145598912245148,-0.000108892936318661,-1.70138207700177e-06,-1.70138207700177e-06,7.75374708981147e-05,-0.000208346590786057,-1.62917395201134e-05
